#easy_tsv
#k: 0.03 
#R: 3400.0 
#displacement [nm] 	 #force [nN] 
0.0	-0.00013594678183682593
1.0000475343831496	-7.316340071430724e-05
2.0000950687662993	-1.0380019591788538e-05
3.0001426031494494	5.240336153073017e-05
4.0001901375325986	9.452469429852593e-05
5.000237671915748	0.00013658675863210165
6.000285206298899	0.00017864882296567738
7.0003327406820475	0.00017340981819883444
8.000380275065197	0.00016789866954526023
9.000427809448347	0.00016238752089168604
10.000475343831496	0.00010092123285706306
11.000522878214646	3.897064979334122e-05
12.000570412597797	-2.297993327038075e-05
13.000617946980945	1.4210942895496889e-05
14.000665481364095	5.254922959344001e-05
15.000713015747243	9.088751629138306e-05
16.000760550130394	5.340120589717542e-05
17.000808084513544	1.4814770477330017e-05
18.000855618896693	-2.3771664942515258e-05
19.000903153279843	-5.410315117505382e-05
20.000950687662993	-8.429049570924308e-05
21.000998222046142	-0.00011447784024343244
22.001045756429292	-7.071561119607554e-05
23.00109329081244	-2.5442524929911433e-05
24.001140825195595	1.9830561336252676e-05
25.00118835957874	6.4280071917280736e-06
26.00123589396189	-8.348610963371643e-06
27.00128342834504	-2.3125229118471306e-05
28.00133096272819	-7.665232818888579e-05
29.00137849711134	-0.00013120331394687664
30.001426031494486	-0.0001857542997048675
31.001473565877642	-0.00011185811628086012
32.00152110026079	-3.41798266369883e-05
33.00156863464394	4.349846300688356e-05
34.00161616902709	7.82187750191811e-05
35.00166370341024	0.00011154359822730631
36.00171123779339	0.0001448684214354315
37.00175877217654	9.256356459755148e-05
38.001806306559686	3.721516184202167e-05
39.001853840942836	-1.813324091350776e-05
40.001901375325986	4.95499239871561e-05
41.00194890970914	0.0001219844983499707
42.001996444092285	0.0001944190727127848
43.002043978475434	0.00014547312240500006
44.002091512858584	9.146389513347582e-05
45.002139047241734	3.745466786195121e-05
46.00218658162488	4.099767881587052e-05
47.00223411600803	4.712059682899014e-05
48.00228165039119	5.324351484210981e-05
49.00232918477433	1.0551684539494504e-05
50.00237671915748	-3.4481253741637033e-05
51.00242425354063	-7.951419202276856e-05
52.00247178792378	-6.534532899157626e-05
53.00251932230693	-4.815068158014345e-05
54.00256685669008	-3.095603416871063e-05
55.00261439107323	-5.300934274069654e-05
56.00266192545638	-7.719300314902556e-05
57.00270945983953	-0.00010137666355735442
58.00275699422268	-8.6056413640237e-05
59.002804528605836	-6.846594827474039e-05
60.00285206298897	-5.087548290924403e-05
61.00289959737213	-3.173103334570725e-05
62.002947131755285	-1.2492293799695345e-05
63.00299466613842	6.746445746316304e-06
64.00304220052158	6.584485771984784e-06
65.00308973490473	5.18274411212083e-06
66.00313726928788	3.7810024522568957e-06
67.00318480367103	2.048706320596861e-05
68.00323233805418	3.8409087500325905e-05
69.00327987243732	5.6331111794682974e-05
70.00332740682047	1.8572717752283692e-05
71.00337494120362	-2.3106615330714308e-05
72.00342247558677	-6.478594841371286e-05
73.00347000996993	-8.160058657728782e-05
74.00351754435307	-9.658254806906216e-05
75.00356507873623	-0.0001115645095608367
76.00361261311937	-9.113877053975962e-05
77.00366014750252	-6.798615788105499e-05
78.00370768188567	-4.4833545222350045e-05
79.00375521626883	-2.1770636054324624e-05
80.00380275065197	1.2850661903938247e-06
81.00385028503513	2.4340768435112573e-05
82.00389781941828	-2.7819837306238405e-06
83.00394535380141	-3.41041850583439e-05
84.00399288818457	-6.542638638606436e-05
85.00404042256771	-7.193283666338628e-05
86.00408795695087	-7.627883312825156e-05
87.00413549133403	-8.062482959311684e-05
88.00418302571717	-6.145226326975664e-05
89.00423056010032	-4.015243606678079e-05
90.00427809448347	-1.8852608863804964e-05
91.00432562886661	-3.06942748254417e-05
92.00437316324977	-4.564666832414648e-05
93.00442069763292	-6.0599061822851255e-05
94.00446823201607	-1.7976985007460734e-05
95.00451576639922	3.0246809456422068e-05
96.00456330078238	7.847060392030486e-05
97.00461083516551	8.280699642523507e-05
98.00465836954866	8.272173630571324e-05
99.00470590393181	8.263647618619142e-05
100.00475343831496	6.098986148816994e-06
101.00480097269812	-7.8406853342785e-05
102.00484850708126	-0.00016291269283438587
103.00489604146442	-7.626497496104098e-05
104.00494357584756	2.882028223174624e-05
105.0049911102307	0.00013390553942453211
106.00503864461386	9.519421109957132e-05
107.00508617899702	4.048608968549343e-05
108.00513371338016	-1.4222031728583736e-05
109.00518124776332	-3.586232427606808e-05
110.00522878214646	-5.370678400682813e-05
111.00527631652962	-7.155124373758843e-05
112.00532385091276	-8.099336195997739e-05
113.0053713852959	-8.944101874387307e-05
114.00541891967906	-9.788867552776886e-05
115.00546645406222	-0.00010455670489324996
116.00551398844536	-0.00011100771912386547
117.00556152282851	-0.00011745873335448105
118.00560905721167	-9.466728053744568e-05
119.0056565915948	-6.820425722803388e-05
120.00570412597794	-4.174123391862208e-05
121.00575166036111	-2.6763370759453173e-05
122.00579919474426	-1.3269291721291335e-05
123.0058467291274	2.2478731687050115e-07
124.00589426351057	-1.1098532749724938e-05
125.00594179789371	-2.5718851259292938e-05
126.00598933227684	-4.0339169768860944e-05
127.00603686666001	-4.7163562422900524e-05
128.00608440104315	-5.2923554457393424e-05
129.0061319354263	-5.868354649188632e-05
130.00617946980947	-4.8259416594271836e-05
131.0062270041926	-3.5565631822971135e-05
132.00627453857575	-2.287184705167044e-05
133.0063220729589	4.601850528479537e-07
134.00636960734207	2.5323811318412583e-05
135.0064171417252	5.0187437583977204e-05
136.00646467610835	-8.277586210489688e-06
137.0065122104915	-7.905241487775223e-05
138.00655974487464	-0.00014982724354501478
139.00660727925782	-9.430695818019223e-05
140.00665481364095	-1.9652189625850715e-05
141.0067023480241	5.500257892849082e-05
142.00674988240723	2.59701149500302e-05
143.00679741679042	-1.9166144818394668e-05
144.00684495117355	-6.430240458681832e-05
145.00689248555668	-6.02868020368138e-05
146.00694001993986	-4.844909110897917e-05
147.006987554323	-3.6611380181144845e-05
148.00703508870615	7.168063421247493e-06
149.0070826230893	5.615392989502917e-05
150.00713015747246	0.00010513979636880957
151.0071776918556	6.74700804538376e-05
152.00722522623875	1.533935814686716e-05
153.0072727606219	-3.679136416010189e-05
154.00732029500503	-5.7758869671333576e-05
155.00736782938822	-7.340411203762334e-05
156.00741536377134	-8.904935440391268e-05
157.0074628981545	-5.0125054528851e-05
158.00751043253766	-1.6663335660353459e-06
159.00755796692079	4.6792387396779025e-05
160.00760550130394	4.033425464167494e-05
161.0076530356871	2.406352669455147e-05
162.00770057007026	7.792798747428434e-06
163.00774810445338	1.7465058774549775e-05
164.00779563883657	3.1876275572008644e-05
165.0078431732197	4.628749236946713e-05
166.00789070760283	2.890620450753127e-05
167.00793824198598	5.5898168888191746e-06
168.00798577636914	-1.7726570729893544e-05
169.0080333107523	-1.7416969390851723e-05
170.00808084513542	-1.2601326274405499e-05
171.0081283795186	-7.785683157959147e-06
172.00817591390174	2.6606219397930815e-05
173.00822344828487	6.675937473945767e-05
174.00827098266805	0.0001069125300809856
175.00831851705118	7.880919995608395e-05
176.00836605143434	3.713031917670593e-05
177.0084135858175	-4.548561602673201e-06
178.00846112020065	-3.349920395531173e-05
179.00850865458378	-5.986581560868518e-05
180.00855618896693	-8.623242726205933e-05
181.0086037233501	-8.566666122813724e-05
182.00865125773322	-7.952133122640617e-05
183.0086987921164	-7.337600122467494e-05
184.00874632649953	-5.323448183857805e-05
185.0087938608827	-3.0134840349093656e-05
186.00884139526585	-7.0351988596086594e-06
187.00888892964898	-2.8854625647450937e-06
188.00893646403213	-2.8206366477844023e-06
189.0089839984153	-2.7558107308237087e-06
190.00903153279845	-1.0366264210908494e-05
191.00907906718157	-1.9663780086305117e-05
192.00912660156476	-2.896129596170198e-05
193.0091741359479	-2.0168078887678803e-05
194.00922167033102	-7.321172821406496e-06
195.00926920471417	5.525733244865815e-06
196.00931673909733	-1.1436581429597944e-05
197.0093642734805	-3.52066128795241e-05
198.00941180786361	-5.897664432945027e-05
199.0094593422468	-6.618864094536727e-05
200.00950687662993	-6.954746198363157e-05
201.00955441101308	-7.290628302189589e-05
202.00960194539624	-3.9879796111486524e-05
203.00964947977937	1.7725209066286014e-06
204.00969701416253	4.3424837924743734e-05
205.00974454854568	4.2845672663628914e-05
206.00979208292884	3.206921932485338e-05
207.00983961731197	2.1292765986077852e-05
208.00988715169512	-8.570989211144178e-06
209.00993468607828	-4.312804064838479e-05
210.0099822204614	-7.76850920856254e-05
211.0100297548446	-8.920394056315822e-05
212.01007728922772	-9.495537175638901e-05
213.01012482361088	-0.00010070680294961978
214.01017235799404	-6.901621332862452e-05
215.0102198923772	-2.7784306865461397e-05
216.01026742676032	1.3447599597701725e-05
217.01031496114348	4.629638392333141e-05
218.01036249552664	7.69710131239017e-05
219.01041002990976	0.00010764564232447199
220.01045756429292	5.576115708651543e-05
221.01050509867608	-1.7910823491307147e-05
222.01055263305923	-9.158280406912779e-05
223.01060016744236	-9.026400737908729e-05
224.01064770182552	-6.881112764988974e-05
225.01069523620868	-4.735824792069273e-05
226.0107427705918	-6.40916480406323e-05
227.010790304975	-9.125397141625209e-05
228.01083783935812	-0.00011841629479187116
229.01088537374127	-6.69275718139808e-05
230.01093290812443	6.407219585890879e-06
231.01098044250756	7.974201098576061e-05
232.01102797689072	9.010643310045275e-05
233.01107551127387	8.268510068554664e-05
234.01112304565703	7.526376827064074e-05
235.01117058004016	8.727064495071855e-05
236.01121811442334	0.0001048566798803856
237.01126564880647	0.0001224427148100522
238.0113131831896	6.988260606362831e-05
239.01136071757279	-3.154867457744081e-06
240.01140825195588	-7.619234097911263e-05
241.01145578633907	-7.661117343332292e-05
242.01150332072223	-5.548289353228207e-05
243.01155085510536	-3.435461363124234e-05
244.0115983894885	-1.9388159726082063e-05
245.01164592387167	-6.279763500697038e-06
246.0116934582548	6.8286327246872925e-06
247.01174099263795	6.861964845188523e-05
248.01178852702114	0.00014532734934864365
249.01183606140424	0.00022203505024539802
250.01188359578742	0.00019585760413343235
251.01193113017058	0.00013765132160186114
252.01197866455368	7.944503907029306e-05
253.01202619893687	7.909289780900159e-05
254.01207373332002	9.703675385965737e-05
255.01212126770315	0.00011498060991031221
256.0121688020863	0.00010611009934031893
257.01221633646946	8.86263410520661e-05
258.0122638708526	7.114258276381418e-05
259.0123114052358	1.18009301768324e-05
260.01235893961893	-6.1196002687646e-05
261.01240647400203	-0.00013419293555212055
262.0124540083852	-0.00011554793995877425
263.0125015427684	-6.654384851724712e-05
264.0125490771515	-1.75397570757226e-05
265.01259661153466	-1.9325839067112488e-05
266.0126441459178	-3.8196119083334913e-05
267.0126916803009	-5.706639909955633e-05
268.01273921468413	-9.045462254673389e-05
269.0127867490673	-0.00012880066363317412
270.0128342834504	-0.0001671467047196123
271.01288181783355	-0.00016161474387963479
272.0129293522167	-0.0001408719008998975
273.01297688659986	-0.00012012905792016132
274.013024420983	-0.00012067392194434385
275.0130719553662	-0.0001287092957579855
276.0131194897493	-0.0001367446695716267
277.0131670241325	-0.00013366750887152764
278.01321455851564	-0.0001266218645375737
279.01326209289874	-0.00011957622020362017
280.0133096272819	-0.0001336858309455061
281.01335716166506	-0.00015546223836378423
282.0134046960482	-0.00017723864578206123
283.01345223043137	-0.00017133663258884365
284.01349976481447	-0.00015525626490549762
285.0135472991976	-0.00013917589722215072
286.01359483358084	-0.00010063894862591343
287.01364236796394	-5.3723274134948656e-05
288.0136899023471	-6.807599643981395e-06
289.01373743673025	4.225055842336871e-05
290.01378497111335	9.211969343271651e-05
291.01383250549657	0.00014198882844206696
292.0138800398797	0.00011856843192241551
293.0139275742628	6.70064064759045e-05
294.013975108646	1.5444381029390758e-05
295.01402264302914	3.047845829637436e-05
296.0140701774123	7.145032905559632e-05
297.01411771179545	0.00011242219981482045
298.0141652461786	0.00013270678626166126
299.0142127805617	0.00014481941216000594
300.0142603149449	0.00015693203805835126
301.0143078493281	0.00014114884336801476
302.0143553837112	0.0001141902484686377
303.01440291809433	8.723165356925921e-05
304.0144504524775	7.836734819808135e-05
305.01449798686065	7.685376794877024e-05
306.0145455212438	7.534018769945902e-05
307.01459305562696	3.426555725757637e-05
308.01464059001006	-2.3105245706454054e-05
309.0146881243932	-8.047604867048751e-05
310.01473565877643	-7.27826432759588e-05
311.01478319315953	-3.791518324524348e-05
312.0148307275427	-3.047723214526315e-06
313.01487826192584	-9.036658402979184e-06
314.014925796309	-3.232507302742977e-05
315.01497333069216	-5.5613487651881594e-05
316.0150208650753	-3.229938631969683e-05
317.0150683994584	1.1018403900833012e-05
318.01511593384157	5.433619412136516e-05
319.0151634682248	4.9758552987743514e-05
320.0152110026079	2.4341261905967836e-05
321.01525853699104	-1.0760291758091848e-06
322.0153060713742	5.95422746948171e-06
323.01535360575735	2.7294577818240463e-05
324.0154011401405	4.863492816700034e-05
325.01544867452367	4.104394491870729e-05
326.01549620890677	2.052104906321572e-05
327.0155437432899	-1.8467922769464297e-09
328.01559127767314	5.430048767861633e-06
329.01563881205624	2.2619465387240848e-05
330.0156863464394	3.980888200662097e-05
331.01573388082255	3.752339181819303e-05
332.01578141520565	2.6297676182272774e-05
333.01582894958887	1.507196054635193e-05
334.01587648397197	2.44245416815528e-05
335.0159240183551	4.334970358137259e-05
336.0159715527383	6.227486548119238e-05
337.01601908712144	3.76431370542706e-05
338.0160666215046	-7.518895735401701e-06
339.01611415588775	-5.2680928525074005e-05
340.01616169027085	-3.6276642988220186e-05
341.016209224654	9.529426499982314e-06
342.0162567590372	5.533549598818479e-05
343.0163042934203	6.994058032865457e-05
344.0163518278035	6.944957293082956e-05
345.01639936218663	6.895856553300457e-05
346.01644689656973	7.36045369738331e-05
347.01649443095295	8.076844113507271e-05
348.0165419653361	8.793234529631232e-05
349.0165894997192	9.024042220897021e-05
350.01663703410236	9.013740176167236e-05
351.0166845684856	9.003438131437448e-05
352.0167321028687	8.467133528727218e-05
353.01677963725183	7.666265240552543e-05
354.016827171635	6.865396952377868e-05
355.0168747060181	4.844237480096258e-05
356.0169222404013	2.201389263560039e-05
357.01696977478446	-4.414589529761804e-06
358.01701730916756	-2.959231814909125e-05
359.0170648435507	-5.4124652160549e-05
360.01711237793387	-7.865698617200674e-05
361.017159912317	-6.397471289767386e-05
362.0172074467002	-2.8798614996947947e-05
363.01725498108334	6.377482903777952e-06
364.01730251546644	5.945075740605586e-06
365.01735004984965	-1.3333736387674387e-05
366.0173975842328	-3.2612548515954356e-05
367.0174451186159	-7.611533888084132e-05
368.01749265299907	-0.00013260183076332883
369.0175401873822	-0.00018908832264581636
370.0175877217654	-0.00016260880586045748
371.01763525614854	-9.109837803338796e-05
372.0176827905317	-1.958795020631848e-05
373.0177303249148	-2.611982119775752e-06
374.01777785929795	-1.560822502880837e-05
375.01782539368116	-2.8604467937840988e-05
376.01787292806426	-5.083732542599228e-05
377.0179204624474	-7.82103602733575e-05
378.0179679968306	-0.00010558339512072272
379.01801553121373	-0.00010928425073122736
380.0180630655969	-9.964676426293697e-05
381.01811059998005	-9.000927779464659e-05
382.01815813436315	-5.512363823020419e-05
383.0182056687463	-5.8343379459997455e-06
384.0182532031295	4.34549623382047e-05
385.0183007375126	2.6784365014242888e-05
386.0183482718958	-2.798270214766309e-05
387.0183958062789	-8.274976930956617e-05
388.01844334066203	-5.45023035996843e-05
389.01849087504525	2.2285491347863676e-05
390.01853840942834	9.907328629540755e-05
391.0185859438115	0.0001191270614347652
392.01863347819466	0.00010559789008759916
393.0186810125778	9.206871874043383e-05
394.018728546961	7.79885956956991e-05
395.01877608134413	6.357833221166147e-05
396.01882361572723	4.916806872762459e-05
397.0188711501104	1.6918785973165525e-05
398.0189186844936	-2.6151061101621363e-05
399.0189662188767	-6.922090817640598e-05
400.01901375325986	-7.15694310285204e-05
401.019061287643	-4.8915720164445034e-05
402.01910882202617	-2.626200930037086e-05
403.0191563564093	-3.7240797490695744e-05
404.0192038907925	-6.912114763423094e-05
405.0192514251756	-0.00010100149777776445
406.01929895955874	-0.00010660410591686904
407.01934649394195	-9.567737505605902e-05
408.01939402832505	-8.47506441952496e-05
409.0194415627082	-0.00011919254631060895
410.01948909709137	-0.0001825183976982116
411.01953663147447	-0.00024584424908581095
412.0195841658577	-0.00020236631836410683
413.01963170024084	-9.0069604978219e-05
414.01967923462394	2.2227108407662857e-05
415.0197267690071	7.314645660996531e-05
416.01977430339025	8.404051027303853e-05
417.0198218377734	9.493456393611117e-05
418.01986937215656	2.9983342895791904e-05
419.0199169065397	-8.502290032801573e-05
420.0199644409228	-0.0002000291435518173
421.02001197530603	-0.00017548623481379645
422.0200595096892	-5.774105882971851e-05
423.0201070440723	6.00041171543532e-05
424.02015457845545	8.88510742371719e-05
425.0202021128386	5.761384185599066e-05
426.02024964722176	2.637660947481107e-05
427.0202971816049	1.8632712612195802e-05
428.0203447159881	2.6957038120350426e-05
429.0203922503712	3.528136362850461e-05
430.0204397847544	4.598323818681162e-05
431.02048731913754	5.833061006641703e-05
432.02053485352064	7.067798194602177e-05
433.0205823879038	4.815852999016333e-05
434.02062992228696	1.2208829999075633e-06
435.0206774566701	-4.57167639903457e-05
436.02072499105327	-5.6092856582386094e-05
437.02077252543637	-4.056006995870947e-05
438.0208200598195	-2.502728333503204e-05
439.0208675942027	-3.387617364735701e-05
440.02091512858584	-6.02074243278903e-05
441.020962662969	-8.653867500842499e-05
442.02101019735215	-8.769931489914765e-05
443.02105773173525	-7.059860517368198e-05
444.02110526611847	-5.3497895448215413e-05
445.0211528005016	-4.184016439791074e-05
446.0212003348847	-3.4177912337615294e-05
447.0212478692679	-2.651566027731943e-05
448.02129540365104	-2.3263705305650422e-05
449.0213429380342	-2.3287298741009706e-05
450.02139047241735	-2.3310892176368992e-05
451.0214380068005	-2.2192812797874504e-05
452.0214855411836	-2.021684062121773e-05
453.02153307556677	-1.8240868444560847e-05
454.02158060995	-3.4400200201434053e-05
455.0216281443331	-6.43469512683826e-05
456.02167567871624	-9.429370233533271e-05
457.0217232130994	-9.600939063584246e-05
458.02177074748255	-7.601086475025828e-05
459.0218182818657	-5.601233886467305e-05
460.02186581624886	-1.413437546670876e-05
461.02191335063196	4.4769253950868734e-05
462.0219608850151	0.00010367288336844933
463.02200841939833	0.00010629937975616855
464.02205595378143	6.462180144443687e-05
465.0221034881646	2.2944223132702994e-05
466.02215102254775	-1.3399998176113278e-05
467.0221985569309	-4.5496565353467166e-05
468.02224609131406	-7.759313253082277e-05
469.0222936256972	-7.185554320132085e-05
470.0223411600803	-3.5634601799841844e-05
471.0223886944635	5.863396016390795e-07
472.0224362288467	3.594344704940385e-05
473.0224837632298	7.059645691993383e-05
474.02253129761294	0.00010524946679046561
475.0225788319961	0.00010232941885550393
476.0226263663792	6.842825048975816e-05
477.0226739007624	3.452708212401059e-05
478.02272143514557	5.7697115153315194e-05
479.0227689695287	0.00012847186925629445
480.02281650391177	0.0001992466233592662
481.022864038295	0.00019897334354299632
