#easy_tsv
#k: 0.032 
#R: 3400.0 
#displacement [nm] 	 #force [nN] 
0.0	0.00024477158689234187
1.0000475343831496	0.00017015071768448212
2.0000950687662993	9.552984847662234e-05
3.0001426031494494	2.0908979268762536e-05
4.0001901375325986	9.922996572025194e-08
5.000237671915748	-2.0556163836568475e-05
6.000285206298899	-4.1211557638857225e-05
7.0003327406820475	-3.2759432830762025e-05
8.000380275065197	-2.4139839646192808e-05
9.000427809448347	-1.5520246461623595e-05
10.000475343831496	3.621568183775876e-05
11.000522878214646	8.832478455865169e-05
12.000570412597797	0.0001404338872795447
13.000617946980945	9.269686476476198e-05
14.000665481364095	4.380427628825558e-05
15.000713015747243	-5.088312188250744e-06
16.000760550130394	-3.685647344100369e-06
17.000808084513544	-1.5532579914029804e-06
18.000855618896693	5.79131361294401e-07
19.000903153279843	1.828847996825524e-05
20.000950687662993	3.626982169244538e-05
21.000998222046142	5.425116341663559e-05
22.001045756429292	5.663296966221727e-05
23.00109329081244	5.869606317361529e-05
24.001140825195595	6.0759156685013284e-05
25.00118835957874	7.556905903292889e-05
26.00123589396189	9.067746568602719e-05
27.00128342834504	0.00010578587233912545
28.00133096272819	8.386779793945763e-05
29.00137849711134	6.097138933225881e-05
30.001426031494486	3.8074980725059975e-05
31.001473565877642	3.6964716312699586e-05
32.00152110026079	3.649594140914591e-05
33.00156863464394	3.6027166505592245e-05
34.00161616902709	6.272217164666409e-05
35.00166370341024	9.029959148743071e-05
36.00171123779339	0.00011787701132819733
37.00175877217654	9.09042352464216e-05
38.001806306559686	6.19925750532274e-05
39.001853840942836	3.3080914860033394e-05
40.001901375325986	3.206445757452032e-05
41.00194890970914	3.21252972264448e-05
42.001996444092285	3.2186136878369275e-05
43.002043978475434	2.0291146156372693e-05
44.002091512858584	7.89742896504396e-06
45.002139047241734	-4.496288226284857e-06
46.00218658162488	-3.563000285783646e-05
47.00223411600803	-6.76037795473751e-05
48.00228165039119	-9.957755623691396e-05
49.00232918477433	-2.5996124374767755e-05
50.00237671915748	5.2647632900098804e-05
51.00242425354063	0.00013129139017496538
52.00247178792378	0.00013384783843955396
53.00251932230693	0.00013251548963995734
54.00256685669008	0.0001311831408403607
55.00261439107323	0.0001419101579204331
56.00266192545638	0.00015329174901851912
57.00270945983953	0.00016467334011660507
58.00275699422268	9.512983634090758e-05
59.002804528605836	2.0935719523855446e-05
60.00285206298897	-5.3258397293195715e-05
61.00289959737213	-4.8867747930856624e-05
62.002947131755285	-3.9708867182888886e-05
63.00299466613842	-3.054998643492126e-05
64.00304220052158	4.207921797597979e-05
65.00308973490473	0.00011876442793294932
66.00313726928788	0.0001954496378899178
67.00318480367103	0.00014768258641946903
68.00323233805418	9.155839646306128e-05
69.00327987243732	3.543420650665428e-05
70.00332740682047	-8.727025874590424e-07
71.00337494120362	-3.5784105819142025e-05
72.00342247558677	-7.069550905082547e-05
73.00347000996993	-4.358279668851657e-05
74.00351754435307	-1.1898536189119673e-05
75.00356507873623	1.9785724310277633e-05
76.00361261311937	1.110992361022608e-05
77.00366014750252	-6.741497340168649e-07
78.00370768188567	-1.2458223078259964e-05
79.00375521626883	-8.881536325706841e-06
80.00380275065197	-4.07074130031901e-06
81.00385028503513	7.400537250688825e-07
82.00389781941828	-1.0830951514783255e-05
83.00394535380141	-2.377295429140508e-05
84.00399288818457	-3.671495706802707e-05
85.00404042256771	-7.196786200854111e-05
86.00408795695087	-0.0001091631491699861
87.00413549133403	-0.00014635843633143105
88.00418302571717	-9.793047687958529e-05
89.00423056010032	-4.175786974045327e-05
90.00427809448347	1.4414737398678751e-05
91.00432562886661	6.016762294751613e-05
92.00437316324977	0.0001049424923665885
93.00442069763292	0.00014971736178566087
94.00446823201607	0.00011699696290863853
95.00451576639922	7.673664903594874e-05
96.00456330078238	3.6476335163258964e-05
97.00461083516551	3.247027421438549e-05
98.00465836954866	3.2116826667828946e-05
99.00470590393181	3.17633791212724e-05
100.00475343831496	4.959064772261402e-05
101.00480097269812	6.931282900014876e-05
102.00484850708126	8.903501027768325e-05
103.00489604146442	0.00010226540004788959
104.00494357584756	0.00011479646073015431
105.0049911102307	0.00012732752141241888
106.00503864461386	0.00011988707440371977
107.00508617899702	0.00011022487730923278
108.00513371338016	0.00010056268021474592
109.00518124776332	6.56385694676382e-05
110.00522878214646	2.7814661420783278e-05
111.00527631652962	-1.0009246626072146e-05
112.00532385091276	-1.2237350098548943e-05
113.0053713852959	-1.0252502337599873e-05
114.00541891967906	-8.267654576650775e-06
115.00546645406222	1.8017108223151974e-05
116.00551398844536	4.726510326179838e-05
117.00556152282851	7.651309830044517e-05
118.00560905721167	2.2590423724927896e-05
119.0056565915948	-4.177483682970524e-05
120.00570412597794	-0.00010614009738433836
121.00575166036111	-9.762367245395177e-05
122.00579919474426	-7.96915592597336e-05
123.0058467291274	-6.17594460655154e-05
124.00589426351057	-7.471053618500893e-05
125.00594179789371	-9.17644685406897e-05
126.00598933227684	-0.00010881840089637045
127.00603686666001	-4.0670395350084933e-05
128.00608440104315	3.911048064289503e-05
129.0061319354263	0.00011889135663587495
130.00617946980947	0.0001052825486381849
131.0062270041926	7.857680820816106e-05
132.00627453857575	5.187106777813721e-05
133.0063220729589	1.943751810060096e-05
134.00636960734207	-1.3820667339226481e-05
135.0064171417252	-4.7078852779053914e-05
136.00646467610835	-2.8757446067516636e-05
137.0065122104915	-2.8163945598101244e-06
138.00655974487464	2.3124656947896396e-05
139.00660727925782	5.4177814212752437e-05
140.00665481364095	8.600548680563817e-05
141.0067023480241	0.00011783315939852393
142.00674988240723	0.0001126801350794988
143.00679741679042	0.00010178359174957175
144.00684495117355	9.088704841964497e-05
145.00689248555668	6.989745058518742e-05
146.00694001993986	4.730162742225005e-05
147.006987554323	2.4705804259313273e-05
148.00703508870615	5.040111147247469e-05
149.0070826230893	8.396775266231766e-05
150.00713015747246	0.00011753439385215975
151.0071776918556	0.00010703723718840303
152.00722522623875	8.918675319302701e-05
153.0072727606219	7.133626919765144e-05
154.00732029500503	8.495977011470071e-05
155.00736782938822	0.00010395860923967205
156.00741536377134	0.0001229574483646429
157.0074628981545	0.0001438784524925444
158.00751043253766	0.00016513529836998926
159.00755796692079	0.00018639214424743354
160.00760550130394	0.00018017466199473725
161.0076530356871	0.00016904804089190652
162.00770057007026	0.00015792141978907608
163.00774810445338	9.196232195504655e-05
164.00779563883657	1.5987078829746266e-05
165.0078431732197	-5.9988164295552005e-05
166.00789070760283	-2.894646280177849e-05
167.00793824198598	2.207341432755025e-05
168.00798577636914	7.309329145688036e-05
169.0080333107523	8.148855537595768e-05
170.00808084513542	8.175428498370787e-05
171.0081283795186	8.202001459145806e-05
172.00817591390174	2.484187801112669e-05
173.00822344828487	-4.352593029802635e-05
174.00827098266805	-0.00011189373860718123
175.00831851705118	-8.346365592891594e-05
176.00836605143434	-3.578141481667287e-05
177.0084135858175	1.190082629557146e-05
178.00846112020065	9.721834376367898e-07
179.00850865458378	-2.1855381990119444e-05
180.00855618896693	-4.468294741787628e-05
181.0086037233501	-1.8476437549373917e-05
182.00865125773322	1.7888431261454345e-05
183.0086987921164	5.425330007228357e-05
184.00874632649953	3.1807011623753076e-05
185.0087938608827	-3.0691303682739567e-06
186.00884139526585	-3.794527236030192e-05
187.00888892964898	-5.1279181213629444e-05
188.00893646403213	-5.996936806372206e-05
189.0089839984153	-6.86595549138149e-05
190.00903153279845	-3.006415005190673e-05
191.00907906718157	1.8924849556284364e-05
192.00912660156476	6.791384916447674e-05
193.0091741359479	9.198971947858831e-05
194.00922167033102	0.00011048316932006064
195.00926920471417	0.00012897661916153296
196.00931673909733	0.00014780081797117635
197.0093642734805	0.00016670055197573976
198.00941180786361	0.00018560028598030317
199.0094593422468	0.00011037543075093497
200.00950687662993	1.3247096507994628e-05
201.00955441101308	-8.388123773494572e-05
202.00960194539624	-0.00010406334349037244
203.00964947977937	-0.0001060038805527876
204.00969701416253	-0.00010794441761520275
205.00974454854568	-6.935388172463418e-05
206.00979208292884	-2.0976641586616653e-05
207.00983961731197	2.7400598551400882e-05
208.00988715169512	-1.0560199513520489e-05
209.00993468607828	-6.975029405384607e-05
210.0099822204614	-0.00012894038859417165
211.0100297548446	-0.00010897662185419897
212.01007728922772	-6.91973621929423e-05
213.01012482361088	-2.9418102531685628e-05
214.01017235799404	-1.748207127881241e-05
215.0102198923772	-1.264130514187392e-05
216.01026742676032	-7.80053900493543e-06
217.01031496114348	-2.0124492207627604e-05
218.01036249552664	-3.690009980711736e-05
219.01041002990976	-5.367570740660712e-05
220.01045756429292	5.520861515140056e-06
221.01050509867608	8.476662128847323e-05
222.01055263305923	0.00016401238106180432
223.01060016744236	0.00014520388286793997
224.01064770182552	0.00010006904636713059
225.01069523620868	5.493420986632239e-05
226.0107427705918	1.1478133099869344e-06
227.010790304975	-5.500138098987089e-05
228.01083783935812	-0.00011115057528972722
229.01088537374127	-0.00011199475145243427
230.01093290812443	-9.747743827305966e-05
231.01098044250756	-8.296012509368547e-05
232.01102797689072	-5.858230720791574e-05
233.01107551127387	-3.141942520013483e-05
234.01112304565703	-4.256543192354641e-06
235.01117058004016	1.843800772130279e-05
236.01121811442334	3.9849397322263887e-05
237.01126564880647	6.126078692322442e-05
238.0113131831896	8.833762750255024e-05
239.01136071757279	0.00011706835096436671
240.01140825195588	0.0001457990744261817
241.01145578633907	0.0001249557690511176
242.01150332072223	8.940305637300571e-05
243.01155085510536	5.385034369489567e-05
244.0115983894885	8.317025298984521e-05
245.01164592387167	0.00013205207032062496
246.0116934582548	0.00018093388765140213
247.01174099263795	0.0001464787330754316
248.01178852702114	8.648856445053119e-05
249.01183606140424	2.649839582563397e-05
250.01188359578742	3.636130727766468e-05
251.01193113017058	6.796995113361489e-05
252.01197866455368	9.957859498956342e-05
253.01202619893687	6.275406079135276e-05
254.01207373332002	4.287977444954713e-06
255.01212126770315	-5.417810590144023e-05
256.0121688020863	-4.603617233035298e-05
257.01221633646946	-1.6498568376713184e-05
258.0122638708526	1.3039035576925046e-05
259.0123114052358	1.4250229408299207e-05
260.01235893961893	6.220512392263629e-06
261.01240647400203	-1.8092046237715269e-06
262.0124540083852	3.3858910113181195e-06
263.0125015427684	1.2962096489971553e-05
264.0125490771515	2.253830196862448e-05
265.01259661153466	2.2876419514460106e-05
266.0126441459178	2.0107138267426303e-05
267.0126916803009	1.7337857020392648e-05
268.01273921468413	-1.1391528888344785e-06
269.0127867490673	-2.498028717315229e-05
270.0128342834504	-4.882142145746884e-05
271.01288181783355	-2.5929694190798634e-05
272.0129293522167	1.3162589571079898e-05
273.01297688659986	5.225487333295636e-05
274.013024420983	6.217440151839926e-05
275.0130719553662	6.182890627080859e-05
276.0131194897493	6.148341102321796e-05
277.0131670241325	6.705275696076217e-05
278.01321455851564	7.473439783975596e-05
279.01326209289874	8.241603871874936e-05
280.0133096272819	8.894364479146994e-05
281.01335716166506	9.505302143677602e-05
282.0134046960482	0.00010116239808208176
283.01345223043137	7.064254443339335e-05
284.01349976481447	2.665280043706174e-05
285.0135472991976	-1.733694355927221e-05
286.01359483358084	-1.2518446135686343e-05
287.01364236796394	1.0510787724030122e-05
288.0136899023471	3.354002158374782e-05
289.01373743673025	4.1024772344055e-05
290.01378497111335	4.262559591448894e-05
291.01383250549657	4.422641948492296e-05
292.0138800398797	5.430152813063878e-05
293.0139275742628	6.763058288616982e-05
294.013975108646	8.095963764170157e-05
295.01402264302914	4.6070882879190015e-05
296.0140701774123	-7.597703359458801e-06
297.01411771179545	-6.126628959811045e-05
298.0141652461786	-0.00010561342280352397
299.0142127805617	-0.00014627836431610515
300.0142603149449	-0.00018694330582868845
301.0143078493281	-0.000135013316942029
302.0143553837112	-4.5988688689943e-05
303.01440291809433	4.30359395621477e-05
304.0144504524775	5.498826928477455e-05
305.01449798686065	3.5630318483949746e-05
306.0145455212438	1.627236768312392e-05
307.01459305562696	2.6571688648212155e-05
308.01464059001006	4.9087571481123396e-05
309.0146881243932	7.160345431403584e-05
310.01473565877643	8.495616951332667e-05
311.01478319315953	9.448188943828164e-05
312.0148307275427	0.00010400760936323712
313.01487826192584	5.876731762509595e-05
314.014925796309	-9.662085327456418e-06
315.01497333069216	-7.80914882800124e-05
316.0150208650753	-0.0001147082028961961
317.0150683994584	-0.00013766962214646123
318.01511593384157	-0.00016063104139672763
319.0151634682248	-0.00011904880318332176
320.0152110026079	-4.9383150959703727e-05
321.01525853699104	2.028250126391801e-05
322.0153060713742	4.6191907579782634e-05
323.01535360575735	5.280383156142133e-05
324.0154011401405	5.941575554306038e-05
325.01544867452367	5.015912777083638e-05
326.01549620890677	3.380947320137342e-05
327.0155437432899	1.7459818631909592e-05
328.01559127767314	-7.015756590530814e-06
329.01563881205624	-3.51723740403235e-05
330.0156863464394	-6.332899149011767e-05
331.01573388082255	-5.90932890150704e-05
332.01578141520565	-3.9987443860866764e-05
333.01582894958887	-2.088159870666212e-05
334.01587648397197	2.7732026024277647e-05
335.0159240183551	9.007203473755557e-05
336.0159715527383	0.00015241204345083347
337.01601908712144	0.0001099052911175374
338.0160666215046	1.797958578765551e-05
339.01611415588775	-7.394611954222636e-05
340.01616169027085	-4.633080858171746e-05
341.016209224654	3.837284597039407e-05
342.0162567590372	0.0001230765005225056
343.0163042934203	0.00012803626026029817
344.0163518278035	9.441322698735647e-05
345.01639936218663	6.079019371441476e-05
346.01644689656973	2.1027800239484595e-05
347.01649443095295	-2.1743851482466483e-05
348.0165419653361	-6.451550320441755e-05
349.0165894997192	-9.942980108799551e-05
350.01663703410236	-0.00013044263293374007
351.0166845684856	-0.00016145546477948464
352.0167321028687	-0.00011388156806677064
353.01677963725183	-2.678087776612263e-05
354.016827171635	6.0319812534525357e-05
355.0168747060181	6.0412086993090815e-05
356.0169222404013	1.6177111129004427e-05
357.01696977478446	-2.805786473508196e-05
358.01701730916756	-1.5515816934523596e-05
359.0170648435507	2.6323437370474736e-05
360.01711237793387	6.816269167547306e-05
361.017159912317	6.861725167007166e-05
362.0172074467002	4.74438845702305e-05
363.01725498108334	2.6270517470389337e-05
364.01730251546644	6.301553856040442e-05
365.01735004984965	0.00013041484847253334
366.0173975842328	0.00019781415838466225
367.0174451186159	0.00020115822181635158
368.01749265299907	0.00017016960079733784
369.0175401873822	0.0001391809797783241
370.0175877217654	0.00010369128824722387
371.01763525614854	6.575858048481472e-05
372.0176827905317	2.782587272240559e-05
373.0177303249148	-2.0508356188592245e-06
374.01777785929795	-2.7499956053697756e-05
375.01782539368116	-5.2949076488536287e-05
376.01787292806426	-6.575176405227041e-05
377.0179204624474	-7.151670988043464e-05
378.0179679968306	-7.728165570859889e-05
379.01801553121373	-3.97509689232904e-05
380.0180630655969	2.2175104215683077e-05
381.01811059998005	8.410117735465657e-05
382.01815813436315	6.865619626922383e-05
383.0182056687463	9.072287067567341e-06
384.0182532031295	-5.051162213408914e-05
385.0183007375126	-6.988422751922705e-05
386.0183482718958	-6.603198297978618e-05
387.0183958062789	-6.217973844034551e-05
388.01844334066203	-6.158855636750631e-05
389.01849087504525	-6.290418555189502e-05
390.01853840942834	-6.421981473628368e-05
391.0185859438115	-8.148127221148286e-06
392.01863347819466	8.189321716372796e-05
393.0186810125778	0.0001719345615485994
394.018728546961	0.00018907461757829472
395.01877608134413	0.00016253087433931566
396.01882361572723	0.00013598713110033798
397.0188711501104	8.327752672482043e-05
398.0189186844936	1.4696568709692594e-05
399.0189662188767	-5.38843893054316e-05
400.01901375325986	-6.52601508280501e-05
401.019061287643	-4.151284796638339e-05
402.01910882202617	-1.7765545104717925e-05
403.0191563564093	-8.079379278322934e-06
404.0192038907925	-7.131776899144028e-06
405.0192514251756	-6.184174519965173e-06
406.01929895955874	-3.1686414644084145e-05
407.01934649394195	-7.382624916872831e-05
408.01939402832505	-0.00011596608369337025
409.0194415627082	-0.00013207765191706563
410.01948909709137	-0.00013161831918644004
411.01953663147447	-0.0001311589864558145
412.0195841658577	-0.00014481458870400506
413.01963170024084	-0.00016756511833624746
414.01967923462394	-0.0001903156479684886
415.0197267690071	-0.00014278370473059572
416.01977430339025	-4.9419284501252075e-05
417.0198218377734	4.3945135728086634e-05
418.01986937215656	9.251794294102501e-05
419.0199169065397	0.0001115299740616051
420.0199644409228	0.0001305420051821842
421.02001197530603	0.00014784142982543548
422.0200595096892	0.0001639970366500662
423.0201070440723	0.00018015264347469605
424.02015457845545	0.00018522364032327358
425.0202021128386	0.00018280281321668876
426.02024964722176	0.00018038198611010407
427.0202971816049	0.00018419597850792365
428.0203447159881	0.00019227426390744205
429.0203922503712	0.00020035254930696
430.0204397847544	0.0001610658623558403
431.02048731913754	8.89979652247028e-05
432.02053485352064	1.6930068093569126e-05
433.0205823879038	2.151749856535428e-05
434.02062992228696	7.978876180225492e-05
435.0206774566701	0.00013806002503915246
436.02072499105327	0.00012543594728958179
437.02077252543637	6.25727903540027e-05
438.0208200598195	-2.903665815797017e-07
439.0208675942027	-2.122458102726183e-05
440.02091512858584	-1.2094543354830672e-05
441.020962662969	-2.9645056823990273e-06
442.02101019735215	-3.255235935128482e-06
443.02105773173525	-1.0380760073907448e-05
444.02110526611847	-1.750628421268679e-05
445.0211528005016	-5.967565998086613e-06
446.0212003348847	1.9271846751227066e-05
447.0212478692679	4.451125950054209e-05
448.02129540365104	1.7774758058799374e-05
449.0213429380342	-4.756449950369944e-05
450.02139047241735	-0.0001129037570662017
451.0214380068005	-0.00012731824788755327
452.0214855411836	-0.00010346609164050306
453.02153307556677	-7.961393539345156e-05
454.02158060995	-2.9065295732032708e-05
455.0216281443331	4.177942566517658e-05
456.02167567871624	0.00011262414706238965
457.0217232130994	0.00011491843161710119
458.02177074748255	6.448643801278238e-05
459.0218182818657	1.4054444408460901e-05
460.02186581624886	-8.218375012137468e-06
461.02191335063196	-8.578899166049068e-06
462.0219608850151	-8.939423319960688e-06
463.02200841939833	-2.76779273407614e-06
464.02205595378143	8.546265263430856e-06
465.0221034881646	1.986032326093845e-05
466.02215102254775	1.8275121683901023e-05
467.0221985569309	6.416541970987284e-06
468.02224609131406	-5.442037741927089e-06
469.0222936256972	-6.036639672599492e-06
470.0223411600803	2.4442560995717897e-06
471.0223886944635	1.0925151871743518e-05
472.0224362288467	1.5519200557760708e-05
473.0224837632298	1.6945140830507732e-05
474.02253129761294	1.8371081103254833e-05
475.0225788319961	1.7442515588879794e-06
476.0226263663792	-2.976811215489714e-05
477.0226739007624	-6.128047586868393e-05
478.02272143514557	-3.336174475845743e-05
479.0227689695287	4.413016201730787e-05
480.02281650391177	0.00012162206879306496
481.022864038295	0.00016739287749587274
482.02291157267814	0.0001863973809225846
