#easy_tsv
#k: 0.03 
#R: 3400.0 
#displacement [nm] 	 #force [nN] 
0.0	-6.409499574384194e-05
1.0000475343831496	2.2208999347651327e-06
2.0000950687662993	6.85367956133722e-05
3.0001426031494494	0.00013485269129197928
4.0001901375325986	0.0001321385053390301
5.000237671915748	0.00012922630877347624
6.000285206298899	0.00012631411220792235
7.0003327406820475	4.857970882539977e-05
8.000380275065197	-2.958517967224257e-05
9.000427809448347	-0.0001077500681698849
10.000475343831496	-8.357118694001646e-05
11.000522878214646	-5.850651435145358e-05
12.000570412597797	-3.3441841762890654e-05
13.000617946980945	-2.322055572668769e-05
14.000665481364095	-1.3171059153682496e-05
15.000713015747243	-3.1215625806773253e-06
16.000760550130394	1.3246628754485261e-05
17.000808084513544	2.9706496860824968e-05
18.000855618896693	4.616636496716463e-05
19.000903153279843	2.5439605776886778e-05
20.000950687662993	4.063521740048509e-06
21.000998222046142	-1.7312562296789835e-05
22.001045756429292	-2.703984334770958e-05
23.00109329081244	-3.6529128731726304e-05
24.001140825195595	-4.601841411574303e-05
25.00118835957874	-3.251382209421391e-05
26.00123589396189	-1.8470760288880204e-05
27.00128342834504	-4.427698483546552e-06
28.00133096272819	2.6714546292748365e-05
29.00137849711134	5.8308595160214695e-05
30.001426031494486	8.990264402768103e-05
31.001473565877642	0.00011001188204086659
32.00152110026079	0.00012978295164720762
33.00156863464394	0.00014955402125354866
34.00161616902709	0.00010486954245296119
35.00166370341024	5.809122681163482e-05
36.00171123779339	1.1312911170308447e-05
37.00175877217654	4.099200365145274e-05
38.001806306559686	7.338863089671384e-05
39.001853840942836	0.0001057852581419747
40.001901375325986	7.25555748400005e-05
41.00194890970914	3.6791440593114836e-05
42.001996444092285	1.027306346229425e-06
43.002043978475434	4.105254155493053e-05
44.002091512858584	8.42392606137156e-05
45.002139047241734	0.00012742597967250097
46.00218658162488	0.00010108033205291057
47.00223411600803	7.161774147562408e-05
48.00228165039119	4.2155150898337376e-05
49.00232918477433	1.1015464946046618e-05
50.00237671915748	-2.0204652873633084e-05
51.00242425354063	-5.142477069331278e-05
52.00247178792378	1.953790386119525e-07
53.00251932230693	5.604946730038337e-05
54.00256685669008	0.00011190355556215478
55.00261439107323	6.372738694949054e-05
56.00266192545638	9.904528128008111e-06
57.00270945983953	-4.3918330693473976e-05
58.00275699422268	-3.163825355076186e-05
59.002804528605836	-1.5559364969566296e-05
60.00285206298897	5.195236116290636e-07
61.00289959737213	2.4411073385652055e-05
62.002947131755285	4.877666638861186e-05
63.00299466613842	7.314225939157134e-05
64.00304220052158	7.739999345814245e-05
65.00308973490473	8.037275554633391e-05
66.00313726928788	8.334551763452534e-05
67.00318480367103	7.750632050243603e-06
68.00323233805418	-7.312017784898381e-05
69.00327987243732	-0.00015399098774821016
70.00332740682047	-2.732798458427472e-05
71.00337494120362	0.00011394926635636099
72.00342247558677	0.00025522651729699853
73.00347000996993	0.000160032201204924
74.00351754435307	4.7408516851975976e-05
75.00356507873623	-6.521516750097352e-05
76.00361261311937	-8.95856733842993e-05
77.00366014750252	-0.00010715948639234663
78.00370768188567	-0.00012473329940039418
79.00375521626883	-0.00010166891624335272
80.00380275065197	-7.533959477828614e-05
81.00385028503513	-4.9010273313219245e-05
82.00389781941828	-3.7856803624781295e-05
83.00394535380141	-2.7973405300129434e-05
84.00399288818457	-1.8090006975477445e-05
85.00404042256771	1.3129903970383932e-05
86.00408795695087	4.620736699852628e-05
87.00413549133403	7.928483002666863e-05
88.00418302571717	6.554487577236685e-05
89.00423056010032	4.7570272438256633e-05
90.00427809448347	2.959566910414641e-05
91.00432562886661	3.151278258338037e-05
92.00437316324977	3.529697280968428e-05
93.00442069763292	3.9081163035988194e-05
94.00446823201607	-1.5235798800907903e-06
95.00451576639922	-4.644715141630145e-05
96.00456330078238	-9.137072295251213e-05
97.00461083516551	-9.823292656389659e-05
98.00465836954866	-0.00010126045006520197
99.00470590393181	-0.00010428797356650735
100.00475343831496	-8.920876023327254e-05
101.00480097269812	-7.224234482982499e-05
102.00484850708126	-5.527592942637767e-05
103.00489604146442	-2.1446509081125072e-05
104.00494357584756	1.4199480673757337e-05
105.0049911102307	4.984547042863927e-05
106.00503864461386	7.379778991746874e-05
107.00508617899702	9.644923551541351e-05
108.00513371338016	0.00011910068111335797
109.00518124776332	4.620453468877858e-05
110.00522878214646	-3.7659452618890094e-05
111.00527631652962	-0.00012152343992655986
112.00532385091276	-8.724266620605819e-05
113.0053713852959	-3.897883682357873e-05
114.00541891967906	9.28499255890136e-06
115.00546645406222	9.267931068798821e-06
116.00551398844536	3.363297868054797e-06
117.00556152282851	-2.5413353326893044e-06
118.00560905721167	-4.885561394901557e-05
119.0056565915948	-0.00010024357056499466
120.00570412597794	-0.00015163152718097376
121.00575166036111	-0.00012018413349572954
122.00579919474426	-7.803512347887789e-05
123.0058467291274	-3.588611346202626e-05
124.00589426351057	-1.3114235784139031e-05
125.00594179789371	7.083384418934248e-06
126.00598933227684	2.7281004622007535e-05
127.00603686666001	2.4268040118500907e-05
128.00608440104315	1.808606641717086e-05
129.0061319354263	1.190409271584081e-05
130.00617946980947	2.2290162409829012e-05
131.0062270041926	3.4999727972013035e-05
132.00627453857575	4.770929353419706e-05
133.0063220729589	-4.617708081101199e-06
134.00636960734207	-6.630805907374693e-05
135.0064171417252	-0.00012799841006639264
136.00646467610835	-9.614274719785702e-05
137.0065122104915	-5.0467909574546395e-05
138.00655974487464	-4.7930719512357745e-06
139.00660727925782	-6.544288271740291e-06
140.00665481364095	-1.5480842195270985e-05
141.0067023480241	-2.4417396118801677e-05
142.00674988240723	-3.165148015960727e-05
143.00679741679042	-3.862115144042069e-05
144.00684495117355	-4.559082272123393e-05
145.00689248555668	-2.5578618103463687e-05
146.00694001993986	-1.2724732856539618e-06
147.006987554323	2.3033671532155114e-05
148.00703508870615	1.4544718586383248e-05
149.0070826230893	7.10246385116278e-07
150.00713015747246	-1.3124225816150328e-05
151.0071776918556	2.892735308970529e-06
152.00722522623875	2.3891277034480312e-05
153.0072727606219	4.4889818759989545e-05
154.00732029500503	5.592494026637323e-05
155.00736782938822	6.525844205302788e-05
156.00741536377134	7.459194383968228e-05
157.0074628981545	4.6738494411275957e-05
158.00751043253766	1.2387719968010269e-05
159.00755796692079	-2.196305447525451e-05
160.00760550130394	-6.656521603478763e-05
161.0076530356871	-0.00011299910510816164
162.00770057007026	-0.00015943299418153442
163.00774810445338	-0.00011811699791509862
164.00779563883657	-6.077189530053234e-05
165.0078431732197	-3.426792685967557e-06
166.00789070760283	2.7840355485185977e-05
167.00793824198598	5.4239209612429485e-05
168.00798577636914	8.063806373967369e-05
169.0080333107523	3.534313321499201e-05
170.00808084513542	-2.3625518625629914e-05
171.0081283795186	-8.25941704662534e-05
172.00817591390174	-7.912844916859951e-05
173.00822344828487	-6.350093956573893e-05
174.00827098266805	-4.7873429962877924e-05
175.00831851705118	-5.144862869218726e-05
176.00836605143434	-5.884305921881387e-05
177.0084135858175	-6.623748974544069e-05
178.00846112020065	-7.926397195254121e-05
179.00850865458378	-9.343384839490513e-05
180.00855618896693	-0.00010760372483726942
181.0086037233501	-7.319826310416549e-05
182.00865125773322	-2.8729478713299126e-05
183.0086987921164	1.5739305677568404e-05
184.00874632649953	-5.395972502193144e-07
185.0087938608827	-2.9657643151287528e-05
186.00884139526585	-5.877568905235651e-05
187.00888892964898	-3.0979049482266947e-05
188.00893646403213	9.086326366366386e-06
189.0089839984153	4.915170221500079e-05
190.00903153279845	1.6243608790367595e-05
191.00907906718157	-3.270439530041828e-05
192.00912660156476	-8.165239939120543e-05
193.0091741359479	-4.688320744794429e-05
194.00922167033102	6.644952248254883e-06
195.00926920471417	6.017311194445404e-05
196.00931673909733	7.744628895137916e-05
197.0093642734805	8.643969051584794e-05
198.00941180786361	9.543309208031673e-05
199.0094593422468	0.00010550397875128646
200.00950687662993	0.00011582560407205785
201.00955441101308	0.00012614722939282923
202.00960194539624	6.353276796665323e-05
203.00964947977937	-1.637258169077103e-05
204.00969701416253	-9.627793134819527e-05
205.00974454854568	-0.00010993464839029336
206.00979208292884	-0.00010759485394215039
207.00983961731197	-0.00010525505949400744
208.00988715169512	-5.1987401263811284e-05
209.00993468607828	1.3802694834927021e-05
210.0099822204614	7.959279093366532e-05
211.0100297548446	1.663667010954231e-05
212.01007728922772	-7.854996617917453e-05
213.01012482361088	-0.00017373660246789143
214.01017235799404	-0.0001591776476718262
215.0102198923772	-0.00011665232156886972
216.01026742676032	-7.412699546591326e-05
217.01031496114348	-3.7746618909237466e-05
218.01036249552664	-2.959929445520039e-06
219.01041002990976	3.1826760018197373e-05
220.01045756429292	3.6651093962059906e-05
221.01050509867608	3.3568309646480936e-05
222.01055263305923	3.0485525330902054e-05
223.01060016744236	5.7321947542297225e-05
224.01064770182552	9.21913014104497e-05
225.01069523620868	0.00012706065527860126
226.0107427705918	8.757028097890775e-05
227.010790304975	2.7771777648592204e-05
228.01083783935812	-3.2026725681721746e-05
229.01088537374127	-3.47445995125981e-05
230.01093290812443	-2.1607791232703568e-05
231.01098044250756	-8.470982952809388e-06
232.01102797689072	-2.7043000884076397e-05
233.01107551127387	-5.45710628375625e-05
234.01112304565703	-8.209912479104788e-05
235.01117058004016	-6.88829513875893e-05
236.01121811442334	-4.396634096991382e-05
237.01126564880647	-1.9049730552239e-05
238.0113131831896	-3.84006271729435e-05
239.01136071757279	-7.067428535682493e-05
240.01140825195588	-0.00010294794354070465
241.01145578633907	-7.287342169932904e-05
242.01150332072223	-2.4299197572046406e-05
243.01155085510536	2.4275026555233636e-05
244.0115983894885	4.501552783123815e-06
245.01164592387167	-3.588171507629484e-05
246.0116934582548	-7.626498293571135e-05
247.01174099263795	-6.662429581403363e-05
248.01178852702114	-4.16559292242966e-05
249.01183606140424	-1.6687562634560897e-05
250.01188359578742	-1.0739248368019112e-06
251.01193113017058	1.1627523136291397e-05
252.01197866455368	2.4328971109384033e-05
253.01202619893687	1.176148677237195e-05
254.01207373332002	-8.797133678157438e-06
255.01212126770315	-2.9355754128685743e-05
256.0121688020863	-1.5476892730090032e-05
257.01221633646946	9.46389551376498e-06
258.0122638708526	3.440468375761867e-05
259.0123114052358	3.109505524209505e-05
260.01235893961893	1.8569307156573913e-05
261.01240647400203	6.043559071053435e-06
262.0124540083852	1.4578027897085819e-05
263.0125015427684	3.0089315680999264e-05
264.0125490771515	4.560060346491188e-05
265.01259661153466	1.0192297413889798e-05
266.0126441459178	-4.234373956660153e-05
267.0126916803009	-9.487977654709007e-05
268.01273921468413	-8.663872698769624e-05
269.0127867490673	-5.7642553733030275e-05
270.0128342834504	-2.8646380478365837e-05
271.01288181783355	-3.289176007958234e-05
272.0129293522167	-4.866075790483187e-05
273.01297688659986	-6.442975573008057e-05
274.013024420983	-0.00010686617244577575
275.0130719553662	-0.00015868605926568216
276.0131194897493	-0.00021050594608558584
277.0131670241325	-0.0001806660781954277
278.01321455851564	-0.00012166406014854487
279.01326209289874	-6.266204210166512e-05
280.0133096272819	-2.607774587997658e-05
281.01335716166506	2.382227823948045e-06
282.0134046960482	3.084220152787116e-05
283.01345223043137	1.7828537719350535e-05
284.01349976481447	-1.0436479861192243e-05
285.0135472991976	-3.870149744173651e-05
286.01359483358084	-1.7037502127242404e-05
287.01364236796394	2.3255398222469435e-05
288.0136899023471	6.354829857218338e-05
289.01373743673025	3.788378164205826e-05
290.01378497111335	-1.2747061824928852e-05
291.01383250549657	-6.337790529191865e-05
292.0138800398797	-2.72012183920194e-05
293.0139275742628	4.230772287868802e-05
294.013975108646	0.00011181666414939912
295.01402264302914	0.00015216164130703837
296.0140701774123	0.00018114786250512265
297.01411771179545	0.00021013408370320846
298.0141652461786	0.0001707235381986565
299.0142127805617	0.000104294672130687
300.0142603149449	3.786580606271399e-05
301.0143078493281	-1.9388934032289868e-05
302.0143553837112	-7.296840926135271e-05
303.01440291809433	-0.00012654788449041837
304.0144504524775	-0.00011306544985915759
305.01449798686065	-7.233941084308073e-05
306.0145455212438	-3.161337182700172e-05
307.01459305562696	-1.185279443536507e-05
308.01464059001006	-7.284078924390585e-07
309.0146881243932	1.0395978650487546e-05
310.01473565877643	-2.669960071997582e-05
311.01478319315953	-8.393423997209179e-05
312.0148307275427	-0.0001411688792242108
313.01487826192584	-0.0001813589887796456
314.014925796309	-0.00021433207663254457
315.01497333069216	-0.0002473051644854453
316.0150208650753	-0.0002042421827193171
317.0150683994584	-0.00012854143773957026
318.01511593384157	-5.284069275981945e-05
319.0151634682248	1.3255901814462891e-05
320.0152110026079	7.517366081214073e-05
321.01525853699104	0.00013709141980982185
322.0153060713742	0.00013646082405361
323.01535360575735	0.00010824500598553428
324.0154011401405	8.002918791745708e-05
325.01544867452367	3.405161171642925e-05
326.01549620890677	-1.986522878276596e-05
327.0155437432899	-7.378206928196403e-05
328.01559127767314	-5.887856008449814e-05
329.01563881205624	-1.279943102150262e-05
330.0156863464394	3.327969804149534e-05
331.01573388082255	6.0677684724682616e-05
332.01578141520565	7.949983450449223e-05
333.01582894958887	9.832198428430285e-05
334.01587648397197	0.00010781394915728538
335.0159240183551	0.00011296571281911833
336.0159715527383	0.00011811747648095129
337.01601908712144	8.759302059022904e-05
338.0160666215046	4.025277182651045e-05
339.01611415588775	-7.087476937208128e-06
340.01616169027085	1.9166690068454e-06
341.016209224654	3.782880238781601e-05
342.0162567590372	7.374093576878663e-05
343.0163042934203	5.588737187647215e-05
344.0163518278035	1.202014544856999e-05
345.01639936218663	-3.184708097933217e-05
346.01644689656973	-4.599698012834556e-05
347.01649443095295	-4.558068520320261e-05
348.0165419653361	-4.5164390278059656e-05
349.0165894997192	-1.631810882345712e-05
350.01663703410236	2.6644709722697727e-05
351.0166845684856	6.960752826885258e-05
352.0167321028687	4.4233479918410874e-05
353.01677963725183	-1.551198561423977e-05
354.016827171635	-7.525745114689041e-05
355.0168747060181	-4.531734012635962e-05
356.0169222404013	3.0313925752338783e-05
357.01696977478446	0.00010594519163103719
358.01701730916756	9.312027975695078e-05
359.0170648435507	3.465157152038443e-05
360.01711237793387	-2.381713671618193e-05
361.017159912317	-3.838238621311614e-06
362.0172074467002	5.713792038707793e-05
363.01725498108334	0.0001181140793954675
364.01730251546644	0.00010700257420488877
365.01735004984965	5.7737450656995594e-05
366.0173975842328	8.472327109102396e-06
367.0174451186159	8.828161074247547e-06
368.01749265299907	3.5780109644261735e-05
369.0175401873822	6.273205821427592e-05
370.0175877217654	9.069837168046488e-05
371.01763525614854	0.00011921524526322563
372.0176827905317	0.0001477321188459864
373.0177303249148	0.00010326456580605672
374.01777785929795	1.8684675639570027e-05
375.01782539368116	-6.589521452691669e-05
376.01787292806426	-7.448179554337629e-05
377.0179204624474	-4.077808894432306e-05
378.0179679968306	-7.0743823452698225e-06
379.01801553121373	3.444900411383167e-05
380.0180630655969	8.037847266095915e-05
381.01811059998005	0.00012630794120808663
382.01815813436315	0.00013911500243153266
383.0182056687463	0.00013302626896080535
384.0182532031295	0.00012693753549007801
385.0183007375126	7.9613636839303e-05
386.0183482718958	8.473536473411215e-06
387.0183958062789	-6.26665638924768e-05
388.01844334066203	-5.733474251294665e-05
389.01849087504525	-7.288193114735834e-06
390.01853840942834	4.2758356283472336e-05
391.0185859438115	6.969005943792956e-05
392.01863347819466	8.293923759111524e-05
393.0186810125778	9.618841574430021e-05
394.018728546961	9.362137217659231e-05
395.01877608134413	8.157695625466507e-05
396.01882361572723	6.953254033273846e-05
397.0188711501104	6.609765325526058e-05
398.0189186844936	6.788502415154637e-05
399.0189662188767	6.967239504783207e-05
400.01901375325986	6.063925590687477e-05
401.019061287643	4.4962498807911555e-05
402.01910882202617	2.9285741708949154e-05
403.0191563564093	3.6128130860506706e-05
404.0192038907925	5.6965475597354984e-05
405.0192514251756	7.780282033420215e-05
406.01929895955874	6.0621122884884385e-05
407.01934649394195	1.9524522981572096e-05
408.01939402832505	-2.1572076921738018e-05
409.0194415627082	-2.0448827538399458e-05
410.01948909709137	7.553697350505491e-06
411.01953663147447	3.555622223940896e-05
412.0195841658577	1.0107422929331433e-05
413.01963170024084	-4.978261985092523e-05
414.01967923462394	-0.00010967266263117873
415.0197267690071	-0.00011635002439867947
416.01977430339025	-8.832643045739378e-05
417.0198218377734	-6.030283651610957e-05
418.01986937215656	-1.8252701009419476e-05
419.0199169065397	3.305442317533435e-05
420.0199644409228	8.436154736008545e-05
421.02001197530603	9.61049395067184e-05
422.0200595096892	8.142445537155943e-05
423.0201070440723	6.674397123640123e-05
424.02015457845545	8.068229160397698e-05
425.0202021128386	0.00011396338051324196
426.02024964722176	0.00014724446942250522
427.0202971816049	0.000127761327758141
428.0203447159881	7.219019044030128e-05
429.0203922503712	1.6619053122464504e-05
430.0204397847544	-2.6713942044665443e-05
431.02048731913754	-6.157694155581892e-05
432.02053485352064	-9.643994106697053e-05
433.0205823879038	-6.0398544210732725e-05
434.02062992228696	2.5299150204050325e-05
435.0206774566701	0.00011099684461882885
436.02072499105327	0.00011537441004850312
437.02077252543637	6.212550323539658e-05
438.0208200598195	8.876596422287205e-06
439.0208675942027	-1.7341069718674995e-05
440.02091512858584	-2.4176562440199927e-05
441.020962662969	-3.101205516172522e-05
442.02101019735215	-2.4087729118845525e-05
443.02105773173525	-7.1806154825125e-06
444.02110526611847	9.726498153821419e-06
445.0211528005016	4.0334809752032094e-05
446.0212003348847	8.100063798987755e-05
447.0212478692679	0.00012166646622772518
448.02129540365104	9.574470006267279e-05
449.0213429380342	2.036801410622908e-05
450.02139047241735	-5.5008671850218585e-05
451.0214380068005	-9.987535420814588e-05
452.0214855411836	-0.00012181575502422933
453.02153307556677	-0.00014375615584031392
454.02158060995	-0.00014161334812366007
455.0216281443331	-0.00012116120875257751
456.02167567871624	-0.00010070906938149388
457.0217232130994	-7.562425381420557e-05
458.02177074748255	-4.697616739128542e-05
459.0218182818657	-1.832808096836377e-05
460.02186581624886	-1.8247424556536604e-05
461.02191335063196	-4.039675107422702e-05
462.0219608850151	-6.254607759191862e-05
463.02200841939833	-7.780298064551065e-05
464.02205595378143	-8.763383536341847e-05
465.0221034881646	-9.746469008132681e-05
466.02215102254775	-7.617820221861508e-05
467.0221985569309	-3.0108878948423874e-05
468.02224609131406	1.5960444321769772e-05
469.0222936256972	5.5342569963711576e-05
470.0223411600803	8.933675469464026e-05
471.0223886944635	0.00012333093942557073
472.0224362288467	0.00012785855506336363
473.0224837632298	0.00010836843000157875
474.02253129761294	8.887830493979284e-05
475.0225788319961	4.8277730655420965e-05
476.0226263663792	-9.729608154173721e-06
477.0226739007624	-6.773694696377148e-05
478.02272143514557	-7.933131428258951e-05
479.0227689695287	-5.221129487026481e-05
480.02281650391177	-2.509127545794297e-05
481.022864038295	-1.3019610727846466e-05
