#easy_tsv
#k: 0.032 
#R: 3400.0 
#displacement [nm] 	 #force [nN] 
0.0	0.0001586902799851715
1.0000475343831496	4.621745046203036e-05
2.0000950687662993	-6.625537906111078e-05
3.0001426031494494	-0.00017872820858425196
4.0001901375325986	-0.00012146371057808482
5.000237671915748	-6.371232639980867e-05
6.000285206298899	-5.9609422215324895e-06
7.0003327406820475	-1.8926222160186277e-06
8.000380275065197	1.8668354738337302e-06
9.000427809448347	5.62629316368609e-06
10.000475343831496	-5.343618092040657e-06
11.000522878214646	-1.6441012904077218e-05
12.000570412597797	-2.7538407716113796e-05
13.000617946980945	-1.999988297093967e-05
14.000665481364095	-1.2245676002194996e-05
15.000713015747243	-4.491469033450336e-06
16.000760550130394	-1.4704631911607064e-05
17.000808084513544	-2.517848002874295e-05
18.000855618896693	-3.56523281458788e-05
19.000903153279843	-8.480428666808075e-05
20.000950687662993	-0.0001346316131902814
21.000998222046142	-0.00018445893971248215
22.001045756429292	-0.00015056795753497443
23.00109329081244	-0.0001149665339726249
24.001140825195595	-7.936511041027537e-05
25.00118835957874	2.410958891528939e-05
26.00123589396189	0.00012917374214120055
27.00128342834504	0.00023423789536711136
28.00133096272819	0.00016286651265366378
29.00137849711134	8.683325240485017e-05
30.001426031494486	1.0799992156036552e-05
31.001473565877642	3.914562089017953e-05
32.00152110026079	7.056466920810217e-05
33.00156863464394	0.00010198371752602479
34.00161616902709	7.98345560329461e-05
35.00166370341024	5.5945232614836675e-05
36.00171123779339	3.2055909196727234e-05
37.00175877217654	-3.7302597784116833e-05
38.001806306559686	-0.00010827722137239075
39.001853840942836	-0.0001792518449606642
40.001901375325986	-0.00013004952584220726
41.00194890970914	-7.620604126038924e-05
42.001996444092285	-2.23625566785716e-05
43.002043978475434	-7.169780927503676e-06
44.002091512858584	6.4107160483156935e-06
45.002139047241734	1.9991213024135148e-05
46.00218658162488	-1.809316189944976e-05
47.00223411600803	-5.8493529594746296e-05
48.00228165039119	-9.889389729004309e-05
49.00232918477433	-3.961090088082013e-05
50.00237671915748	2.4452812977174396e-05
51.00242425354063	8.851652683516893e-05
52.00247178792378	7.310902243929479e-05
53.00251932230693	5.36397705029588e-05
54.00256685669008	3.41705185666228e-05
55.00261439107323	2.1624334796655187e-05
56.00266192545638	9.453930366319378e-06
57.00270945983953	-2.7164740640163504e-06
58.00275699422268	-6.379135676238163e-05
59.002804528605836	-0.00012767668787317911
60.00285206298897	-0.0001915620189839758
61.00289959737213	-9.383998927197767e-05
62.002947131755285	1.3687774139918528e-05
63.00299466613842	0.00012121553755181331
64.00304220052158	8.726616201527723e-05
65.00308973490473	4.427583588797145e-05
66.00313726928788	1.285509760666241e-06
67.00318480367103	6.291445754933734e-05
68.00323233805418	0.00013156873175946692
69.00327987243732	0.00020022300596959556
70.00332740682047	0.00019744934436458233
71.00337494120362	0.0001896458250377185
72.00342247558677	0.00018184230571085456
73.00347000996993	0.00011333359507876112
74.00351754435307	4.0350548914992045e-05
75.00356507873623	-3.263249724877801e-05
76.00361261311937	-1.4770716887222161e-05
77.00366014750252	1.0087348434348584e-05
78.00370768188567	3.494541375591966e-05
79.00375521626883	1.555130752749802e-05
80.00380275065197	-7.398089627714106e-06
81.00385028503513	-3.034748678292652e-05
82.00389781941828	1.4070753182009005e-05
83.00394535380141	6.412700991276327e-05
84.00399288818457	0.00011418326664351822
85.00404042256771	7.228752730189774e-05
86.00408795695087	2.2386467465478248e-05
87.00413549133403	-2.7514592370941237e-05
88.00418302571717	9.438264212638762e-06
89.00423056010032	5.424708292729589e-05
90.00427809448347	9.905590164195301e-05
91.00432562886661	0.00012032239485044598
92.00437316324977	0.00013937915780101476
93.00442069763292	0.00015843592075158358
94.00446823201607	0.00010204610269350808
95.00451576639922	3.8315697009547635e-05
96.00456330078238	-2.541470867441279e-05
97.00461083516551	-6.623994997848786e-05
98.00465836954866	-0.00010475749760116145
99.00470590393181	-0.00014327504522383455
100.00475343831496	-0.00016508618554320504
101.00480097269812	-0.00018515607525863086
102.00484850708126	-0.00020522596497405643
103.00489604146442	-0.00011594185810970423
104.00494357584756	-1.4877577682387866e-05
105.0049911102307	8.618670274492717e-05
106.00503864461386	0.00010935284055554522
107.00508617899702	0.00012385312260207036
108.00513371338016	0.0001383534046485953
109.00518124776332	0.00014555534394460425
110.00522878214646	0.00015191951160970648
111.00527631652962	0.00015828367927480877
112.00532385091276	0.00010805239198452289
113.0053713852959	5.1122734068497675e-05
114.00541891967906	-5.8069238475282835e-06
115.00546645406222	-3.5303143668120475e-05
116.00551398844536	-6.145401647590415e-05
117.00556152282851	-8.760488928368816e-05
118.00560905721167	-7.855048365532491e-05
119.0056565915948	-6.507584011504289e-05
120.00570412597794	-5.1601196574760893e-05
121.00575166036111	-3.250288854326552e-05
122.00579919474426	-1.267805132412549e-05
123.0058467291274	7.1467858950145386e-06
124.00589426351057	-2.9740563180323482e-05
125.00594179789371	-7.41621421369311e-05
126.00598933227684	-0.0001185837210935387
127.00603686666001	-0.00012897169657866806
128.00608440104315	-0.00013471296437419646
129.0061319354263	-0.00014045423216972486
130.00617946980947	-0.00010199049568686748
131.0062270041926	-5.73274668468072e-05
132.00627453857575	-1.2664438006746933e-05
133.0063220729589	-1.1578837496492243e-06
134.00636960734207	5.5751151198420885e-06
135.0064171417252	1.23081139893334e-05
136.00646467610835	8.514801949270188e-06
137.0065122104915	3.1664805188753683e-06
138.00655974487464	-2.18184091151945e-06
139.00660727925782	2.4242336107269003e-05
140.00665481364095	5.5480241211456066e-05
141.0067023480241	8.671814631564312e-05
142.00674988240723	5.081879220721513e-05
143.00679741679042	4.492265091581441e-06
144.00684495117355	-4.1834262024051016e-05
145.00689248555668	-4.662603991336402e-06
146.00694001993986	4.579709284143928e-05
147.006987554323	9.625678967421361e-05
148.00703508870615	7.797482414083592e-05
149.0070826230893	4.848813885080381e-05
150.00713015747246	1.9001453560772483e-05
151.0071776918556	2.9383021715425058e-05
152.00722522623875	4.6417768488333685e-05
153.0072727606219	6.345251526124186e-05
154.00732029500503	2.656548707235304e-05
155.00736782938822	-1.9530663443995235e-05
156.00741536377134	-6.562681396034231e-05
157.0074628981545	-6.0798963479249226e-05
158.00751043253766	-4.7073642925284044e-05
159.00755796692079	-3.334832237131922e-05
160.00760550130394	-3.9231178912258805e-05
161.0076530356871	-4.861764302099589e-05
162.00770057007026	-5.8004107129732733e-05
163.00774810445338	-4.527552328404189e-05
164.00779563883657	-2.850722526456263e-05
165.0078431732197	-1.1738927245083817e-05
166.00789070760283	-1.2572972610263346e-06
167.00793824198598	8.050722706214283e-06
168.00798577636914	1.735874267345515e-05
169.0080333107523	3.997638546963778e-05
170.00808084513542	6.513249201503947e-05
171.0081283795186	9.028859856044181e-05
172.00817591390174	5.247119759933122e-05
173.00822344828487	2.3869886503460078e-06
174.00827098266805	-4.7697220298640543e-05
175.00831851705118	-3.8457106948394955e-06
176.00836605143434	5.868869910172346e-05
177.0084135858175	0.00012122310889828807
178.00846112020065	9.797075399210631e-05
179.00850865458378	5.730234934279409e-05
180.00855618896693	1.663394469348078e-05
181.0086037233501	-6.152993025343926e-05
182.00865125773322	-0.0001474617185074444
183.0086987921164	-0.0002333935067614518
184.00874632649953	-0.00016307055850307449
185.0087938608827	-5.972286492704784e-05
186.00884139526585	4.362482864898159e-05
187.00888892964898	7.870437737091403e-05
188.00893646403213	9.90677968810853e-05
189.0089839984153	0.0001194312163912571
190.00903153279845	5.5413805566078625e-05
191.00907906718157	-2.7150907367574884e-05
192.00912660156476	-0.00010971562030123058
193.0091741359479	-5.979341508491697e-05
194.00922167033102	1.9815854951993542e-05
195.00926920471417	9.942512498890405e-05
196.00931673909733	4.094950111891587e-05
197.0093642734805	-4.9061427107530546e-05
198.00941180786361	-0.00013907235533397696
199.0094593422468	-0.00010409061242940522
200.00950687662993	-4.002216252030695e-05
201.00955441101308	2.4046287388791323e-05
202.00960194539624	8.19454940868428e-05
203.00964947977937	0.00013838216420538398
204.00969701416253	0.00019481883432392516
205.00974454854568	0.00012412751688275461
206.00979208292884	2.2739651702431593e-05
207.00983961731197	-7.864821347789142e-05
208.00988715169512	-9.506065488989276e-05
209.00993468607828	-9.057884734918217e-05
210.0099822204614	-8.609703980847155e-05
211.0100297548446	-6.84853310945809e-05
212.01007728922772	-4.7586663797167225e-05
213.01012482361088	-2.6687996499753537e-05
214.01017235799404	1.2178588318401348e-05
215.0102198923772	5.56239215676282e-05
216.01026742676032	9.906925481685504e-05
217.01031496114348	7.815535350970218e-05
218.01036249552664	4.054994307743632e-05
219.01041002990976	2.9445326451704494e-06
220.01045756429292	4.292715758168137e-05
221.01050509867608	0.0001033854013583782
222.01055263305923	0.00016384364513507342
223.01060016744236	0.00017054096364746052
224.01064770182552	0.00016280414808403804
225.01069523620868	0.00015506733252061572
226.0107427705918	0.0001334524791669624
227.010790304975	0.00010804744275212674
228.01083783935812	8.264240633729176e-05
229.01088537374127	9.33238612264277e-05
230.01093290812443	0.00011402867873673464
231.01098044250756	0.00013473349624704104
232.01102797689072	4.087614193120444e-05
233.01107551127387	-8.533888615417832e-05
234.01112304565703	-0.00021155391423955771
235.01117058004016	-0.00016606535048052312
236.01121811442334	-7.126902468128192e-05
237.01126564880647	2.352730111795677e-05
238.0113131831896	4.71038806782975e-06
239.01136071757279	-4.7272991636895255e-05
240.01140825195588	-9.925637134161749e-05
241.01145578633907	-0.00011202721122487286
242.01150332072223	-0.00011316306333017551
243.01155085510536	-0.00011429891543547811
244.0115983894885	-7.372036482852548e-05
245.01164592387167	-2.056311330263085e-05
246.0116934582548	3.259413822326098e-05
247.01174099263795	-1.2121784421976501e-05
248.01178852702114	-8.68267121905305e-05
249.01183606140424	-0.00016153163995908054
250.01188359578742	-0.00010518272388300537
251.01193113017058	-8.035867106080313e-06
252.01197866455368	8.911098967083964e-05
253.01202619893687	7.446554740109666e-05
254.01207373332002	2.4466514913863808e-05
255.01212126770315	-2.5532517573366383e-05
256.0121688020863	-2.020757710055837e-05
257.01221633646946	2.8883997202114258e-06
258.0122638708526	2.598437654098001e-05
259.0123114052358	2.4997192419003987e-05
260.01235893961893	1.6153370543244914e-05
261.01240647400203	7.309548667486311e-06
262.0124540083852	4.1522385485475395e-05
263.0125015427684	8.999901236313663e-05
264.0125490771515	0.00013847563924079527
265.01259661153466	9.253923593796219e-05
266.0126441459178	1.4845293829744894e-05
267.0126916803009	-6.284864827846825e-05
268.01273921468413	-7.965056009738114e-05
269.0127867490673	-7.565809540597243e-05
270.0128342834504	-7.166563071456394e-05
271.01288181783355	-3.749943701266378e-05
272.0129293522167	7.126873730694043e-06
273.01297688659986	5.175318447404952e-05
274.013024420983	3.750078129735441e-05
275.0130719553662	2.5307130885489873e-06
276.0131194897493	-3.2439355120254586e-05
277.0131670241325	-2.5499331955567944e-05
278.01321455851564	-3.592470082447164e-06
279.01326209289874	1.8314391790672457e-05
280.0133096272819	-7.0716890764833316e-06
281.01335716166506	-4.959702801063574e-05
282.0134046960482	-9.212236694478591e-05
283.01345223043137	-9.349000077443183e-05
284.01349976481447	-7.972246058407384e-05
285.0135472991976	-6.595492039371513e-05
286.01359483358084	-5.6839391162887084e-05
287.01364236796394	-4.945956358853081e-05
288.0136899023471	-4.2079736014174156e-05
289.01373743673025	-1.0856760689797538e-05
290.01378497111335	2.9391368088783886e-05
291.01383250549657	6.963949686736744e-05
292.0138800398797	4.2686750057710234e-05
293.0139275742628	-1.0069710664566987e-05
294.013975108646	-6.2826171386847e-05
295.01402264302914	-4.5263236389127115e-05
296.0140701774123	-3.123629030086789e-07
297.01411771179545	4.4638510583112135e-05
298.0141652461786	4.316007580100958e-05
299.0142127805617	2.3340979686442255e-05
300.0142603149449	3.5218835718738796e-06
301.0143078493281	-1.412720616004174e-05
302.0143553837112	-3.09069653158859e-05
303.01440291809433	-4.7686724471730955e-05
304.0144504524775	-1.071745942663852e-05
305.01449798686065	4.8087109063434345e-05
306.0145455212438	0.00010689167755351032
307.01459305562696	0.00013991839096594565
308.01464059001006	0.00016232656994738252
309.0146881243932	0.0001847347489288206
310.01473565877643	0.00015960957179039363
311.01478319315953	0.00011463209722410626
312.0148307275427	6.965462265781652e-05
313.01487826192584	2.3361622191670563e-05
314.014925796309	-2.3488400330138945e-05
315.01497333069216	-7.033842285195094e-05
316.0150208650753	-2.5014880060602546e-05
317.0150683994584	5.987329323201913e-05
318.01511593384157	0.0001447614665246453
319.0151634682248	0.00011081369781107693
320.0152110026079	2.51595478697009e-05
321.01525853699104	-6.0494602071679635e-05
322.0153060713742	-6.696550943179383e-05
323.01535360575735	-3.851483718245322e-05
324.0154011401405	-1.0064164933111106e-05
325.01544867452367	-1.1212192816922197e-05
326.01549620890677	-2.559043707235652e-05
327.0155437432899	-3.996868132779161e-05
328.01559127767314	1.952991184856412e-06
329.01563881205624	6.937852718205292e-05
330.0156863464394	0.000136804063179253
331.01573388082255	0.00012632425369906174
332.01578141520565	8.008091738887761e-05
333.01582894958887	3.3837581078691045e-05
334.01587648397197	4.572044130434134e-05
335.0159240183551	8.464235714611191e-05
336.0159715527383	0.00012356427298788246
337.01601908712144	0.00012856387791647923
338.0160666215046	0.00011757438531054292
339.01611415588775	0.00010658489270460664
340.01616169027085	9.809961858797389e-05
341.016209224654	9.081026608872508e-05
342.0162567590372	8.352091358947625e-05
343.0163042934203	6.40266175916501e-05
344.0163518278035	3.8627157194594135e-05
345.01639936218663	1.3227696797538169e-05
346.01644689656973	-3.0212799154872883e-05
347.01649443095295	-8.24962580942301e-05
348.0165419653361	-0.00013477971703358734
349.0165894997192	-0.0001476054482592117
350.01663703410236	-0.0001408389620829044
351.0166845684856	-0.00013407247590659706
352.0167321028687	-0.00017399933251684046
353.01677963725183	-0.00023741155562738027
354.016827171635	-0.0003008237787379201
355.0168747060181	-0.00024830928306273064
356.0169222404013	-0.0001367348374624023
357.01696977478446	-2.5160391862073992e-05
358.01701730916756	-1.1295460437283784e-05
359.0170648435507	-4.7849089716858985e-05
360.01711237793387	-8.440271899643418e-05
361.017159912317	-6.823940389097226e-05
362.0172074467002	-2.4525849529187997e-05
363.01725498108334	1.9187704832596264e-05
364.01730251546644	2.814982458217019e-05
365.01735004984965	1.8719158432844994e-05
366.0173975842328	9.288492283519787e-06
367.0174451186159	3.344353049597865e-05
368.01749265299907	7.560001985046045e-05
369.0175401873822	0.00011775650920494227
370.0175877217654	9.819811020438038e-05
371.01763525614854	4.5143129988358495e-05
372.0176827905317	-7.91185022766336e-06
373.0177303249148	-2.8383008988165117e-05
374.01777785929795	-3.094605650389369e-05
375.01782539368116	-3.350910401962227e-05
376.01787292806426	-5.727322021457453e-05
377.0179204624474	-9.283573421887462e-05
378.0179679968306	-0.00012839824822317473
379.01801553121373	-0.00012536794215285173
380.0180630655969	-0.0001005920996538769
381.01811059998005	-7.581625715490205e-05
382.01815813436315	-6.95589003380067e-05
383.0182056687463	-7.386603842862319e-05
384.0182532031295	-7.81731765192397e-05
385.0183007375126	-6.45305791138136e-05
386.0183482718958	-4.052074977321464e-05
387.0183958062789	-1.651092043261697e-05
388.01844334066203	-3.189648965060186e-05
389.01849087504525	-7.031737028130217e-05
390.01853840942834	-0.00010873825091200046
391.0185859438115	-0.00012518465165835423
392.01863347819466	-0.0001286235520632874
393.0186810125778	-0.00013206245246822035
394.018728546961	-0.0001099214533316507
395.01877608134413	-7.245250564855232e-05
396.01882361572723	-3.498355796545593e-05
397.0188711501104	-2.6007608433083196e-05
398.0189186844936	-3.4314577568785025e-05
399.0189662188767	-4.2621546704486414e-05
400.01901375325986	-3.42675633495667e-05
401.019061287643	-1.5684024938258992e-05
402.01910882202617	2.899513473047729e-06
403.0191563564093	-3.0256500861423777e-05
404.0192038907925	-9.556705314438618e-05
405.0192514251756	-0.00016087760542734514
406.01929895955874	-0.00012225273553000755
407.01934649394195	-1.824995656317081e-05
408.01939402832505	8.57528224036604e-05
409.0194415627082	0.00010826211824075351
410.01948909709137	7.888857171902285e-05
411.01953663147447	4.9515025197293765e-05
412.0195841658577	1.6885651149195622e-06
413.01963170024084	-5.802798933275744e-05
414.01967923462394	-0.00011774454378043126
415.0197267690071	-0.00012011116165170853
416.01977430339025	-8.507884432251548e-05
417.0198218377734	-5.004652699332429e-05
418.01986937215656	-2.5148583063554788e-05
419.0199169065397	-6.938943544412084e-06
420.0199644409228	1.1270695974729654e-05
421.02001197530603	1.5672472271727976e-05
422.0200595096892	1.085223510583315e-05
423.0201070440723	6.031997939938576e-06
424.02015457845545	3.73130265077829e-05
425.0202021128386	9.29940410038657e-05
426.02024964722176	0.00014867505549994556
427.0202971816049	0.00013111136738729466
428.0203447159881	6.345210352857864e-05
429.0203922503712	-4.207160330133791e-06
430.0204397847544	8.576302109633348e-06
431.02048731913754	7.703402735109083e-05
432.02053485352064	0.00014549175259254471
433.0205823879038	0.00014041410398291153
434.02062992228696	8.383761197140522e-05
435.0206774566701	2.726111995990191e-05
436.02072499105327	3.3665893817879794e-05
437.02077252543637	8.47015384668717e-05
438.0208200598195	0.00013573718311586633
439.0208675942027	0.00011312853303682984
440.02091512858584	3.771481532945143e-05
441.020962662969	-3.7698902377930954e-05
442.02101019735215	-4.981640288262585e-05
443.02105773173525	-1.6012318036347466e-05
444.02110526611847	1.779176680993272e-05
445.0211528005016	1.2287461632883537e-05
446.0212003348847	-2.207160411597738e-05
447.0212478692679	-5.643066986484012e-05
448.02129540365104	-7.524445885823148e-05
449.0213429380342	-8.251269763358672e-05
450.02139047241735	-8.978093640894234e-05
451.0214380068005	-3.502551145782663e-05
452.0214855411836	6.633665912207209e-05
453.02153307556677	0.00016769882970197618
454.02158060995	0.00015861869049232466
455.0216281443331	6.557445339807128e-05
456.02167567871624	-2.7469783696187068e-05
457.0217232130994	-8.223749660480161e-05
458.02177074748255	-0.0001075644246820929
459.0218182818657	-0.00013289135275938553
460.02186581624886	-0.00014806643650831525
461.02191335063196	-0.00015534177827712962
462.0219608850151	-0.0001626171200459444
463.02200841939833	-0.0001565487745419908
464.02205595378143	-0.0001399756345349993
465.0221034881646	-0.0001234024945280069
466.02215102254775	-9.628080851790881e-05
467.0221985569309	-6.075792697815214e-05
468.02224609131406	-2.5235045438393575e-05
469.0222936256972	-2.882770299203829e-05
470.0223411600803	-6.3936135172594e-05
471.0223886944635	-9.904456735315157e-05
472.0224362288467	-0.0001325856057700418
473.0224837632298	-0.0001648490859862823
474.02253129761294	-0.00019711256620252447
475.0225788319961	-0.0001573285530247025
476.0226263663792	-5.813728901484406e-05
477.0226739007624	4.105397499501963e-05
478.02272143514557	6.196578404955199e-05
479.0227689695287	1.7582461271255962e-05
480.02281650391177	-2.680086150703536e-05
