#easy_tsv
#k: 0.03 
#R: 3400.0 
#displacement [nm] 	 #force [nN] 
0.0	-5.5712018295931255e-05
1.0000475343831496	9.466865883619338e-06
2.0000950687662993	7.464575006316993e-05
3.0001426031494494	0.00013982463424272053
4.0001901375325986	0.00011244115096778712
5.000237671915748	8.479215546035154e-05
6.000285206298899	5.714315995291594e-05
7.0003327406820475	3.601415378665546e-05
8.000380275065197	1.4922659991140489e-05
9.000427809448347	-6.168833804374482e-06
10.000475343831496	4.188248185242842e-05
11.000522878214646	9.053223260002177e-05
12.000570412597797	0.0001391819833476152
13.000617946980945	8.910239773642421e-05
14.000665481364095	3.78801712841341e-05
15.000713015747243	-1.3342055168155924e-05
16.000760550130394	-3.1194418384053707e-05
17.000808084513544	-4.856262443913138e-05
18.000855618896693	-6.593083049420901e-05
19.000903153279843	-6.787810937175333e-05
20.000950687662993	-6.955611964654153e-05
21.000998222046142	-7.123412992132976e-05
22.001045756429292	-3.614863765619068e-05
23.00109329081244	-3.1203351155118673e-07
24.001140825195595	3.5524570633088295e-05
25.00118835957874	6.468816550273457e-05
26.00123589396189	9.369549208416414e-05
27.00128342834504	0.00012270281866559363
28.00133096272819	4.073358628337563e-05
29.00137849711134	-4.4167930258211804e-05
30.001426031494486	-0.00012906944679979925
31.001473565877642	-4.810108665225674e-05
32.00152110026079	3.7751285313601824e-05
33.00156863464394	0.0001236036572794604
34.00161616902709	8.04628166955296e-05
35.00166370341024	3.313163490253996e-05
36.00171123779339	-1.4199546890449653e-05
37.00175877217654	1.1218555807512382e-05
38.001806306559686	3.9222394989663195e-05
39.001853840942836	6.722623417181384e-05
40.001901375325986	6.550036645079883e-05
41.00194890970914	6.262635428703887e-05
42.001996444092285	5.9752342123278946e-05
43.002043978475434	0.0001299936386118547
44.002091512858584	0.00020328487296320322
45.002139047241734	0.00027657610731455216
46.00218658162488	0.000223082843292662
47.00223411600803	0.00016390618219646515
48.00228165039119	0.00010472952110026786
49.00232918477433	0.00011822940923033627
50.00237671915748	0.00013521479416444724
51.00242425354063	0.00015220017909855824
52.00247178792378	9.266842815646174e-05
53.00251932230693	2.922591184198194e-05
54.00256685669008	-3.421660447249785e-05
55.00261439107323	-1.0142757127184141e-05
56.00266192545638	1.8681417753950142e-05
57.00270945983953	4.7505592635084236e-05
58.00275699422268	2.6887816975683744e-05
59.002804528605836	3.428705382943499e-06
60.00285206298897	-2.0030406209796427e-05
61.00289959737213	-1.0605830745187738e-05
62.002947131755285	8.140045684368613e-07
63.00299466613842	1.2233839882061308e-05
64.00304220052158	2.387870020223297e-05
65.00308973490473	3.5537940513271005e-05
66.00313726928788	4.71971808243089e-05
67.00318480367103	7.169891847358559e-05
68.00323233805418	9.706304727212891e-05
69.00327987243732	0.0001224271760706719
70.00332740682047	0.00012081419454272608
71.00337494120362	0.00011730152173656562
72.00342247558677	0.00011378884893040509
73.00347000996993	0.00012152158453860859
74.00351754435307	0.000130083173978828
75.00356507873623	0.00013864476341904748
76.00361261311937	8.08343341682945e-05
77.00366014750252	1.7912358405820556e-05
78.00370768188567	-4.50096173566542e-05
79.00375521626883	-7.589162690467018e-05
80.00380275065197	-0.00010419949382449271
81.00385028503513	-0.0001325073607443156
82.00389781941828	-0.00011408114923324763
83.00394535380141	-9.174374936836313e-05
84.00399288818457	-6.94063495034783e-05
85.00404042256771	-2.93490367682298e-05
86.00408795695087	1.2250967672760075e-05
87.00413549133403	5.385097211374995e-05
88.00418302571717	-4.762589015109606e-06
89.00423056010032	-7.244049644621247e-05
90.00427809448347	-0.00014011840387731536
91.00432562886661	-8.516978262009233e-05
92.00437316324977	-1.8711187516152194e-05
93.00442069763292	4.774740758778795e-05
94.00446823201607	0.00011924979731782557
95.00451576639922	0.0001912429238834485
96.00456330078238	0.00026323605044907143
97.00461083516551	0.00015953107633940832
98.00465836954866	3.812453108892448e-05
99.00470590393181	-8.328201416155773e-05
100.00475343831496	-7.941396181034523e-05
101.00480097269812	-6.24889747889387e-05
102.00484850708126	-4.5563987767532384e-05
103.00489604146442	-5.000653229343393e-05
104.00494357584756	-5.675089694582502e-05
105.0049911102307	-6.349526159821602e-05
106.00503864461386	-3.506686046512316e-05
107.00508617899702	-2.72563028524517e-06
108.00513371338016	2.9615599894632393e-05
109.00518124776332	-2.90699392925726e-05
110.00522878214646	-9.820437731005363e-05
111.00527631652962	-0.00016733881532753558
112.00532385091276	-0.00013319112006384234
113.0053713852959	-8.681943952995919e-05
114.00541891967906	-4.0447758996075436e-05
115.00546645406222	-2.008041391389118e-05
116.00551398844536	-2.8841451518088166e-06
117.00556152282851	1.4312123610273778e-05
118.00560905721167	2.9018602091089035e-05
119.0056565915948	4.3412472182399494e-05
120.00570412597794	5.780634227370995e-05
121.00575166036111	1.8641894164863842e-05
122.00579919474426	-2.7441828995755777e-05
123.0058467291274	-7.35255521563754e-05
124.00589426351057	-5.168071307971219e-05
125.00594179789371	-2.081154542678166e-05
126.00598933227684	1.0057622226148873e-05
127.00603686666001	-5.241088227260511e-06
128.00608440104315	-2.684323447138908e-05
129.0061319354263	-4.8445380715517646e-05
130.00617946980947	-2.923334498249317e-05
131.0062270041926	-4.297544473809826e-06
132.00627453857575	2.0638256034873527e-05
133.0063220729589	-9.247176914409281e-06
134.00636960734207	-4.702525217925729e-05
135.0064171417252	-8.480332744410529e-05
136.00646467610835	-6.303495706617525e-05
137.0065122104915	-3.2470030807367385e-05
138.00655974487464	-1.9051045485595345e-06
139.00660727925782	5.835720087775326e-07
140.00665481364095	-1.1814751986947327e-06
141.0067023480241	-2.9465224061669975e-06
142.00674988240723	-7.393150366355303e-06
143.00679741679042	-1.2256258039437732e-05
144.00684495117355	-1.7119365712520038e-05
145.00689248555668	1.4667521139638708e-05
146.00694001993986	5.228694852436379e-05
147.006987554323	8.990637590908786e-05
148.00703508870615	7.894717165966015e-05
149.0070826230893	6.006977144454352e-05
150.00713015747246	4.119237122942739e-05
151.0071776918556	6.052361197809613e-05
152.00722522623875	8.623107669267284e-05
153.0072727606219	0.00011193854140724885
154.00732029500503	9.544632241158561e-05
155.00736782938822	7.174695844076144e-05
156.00741536377134	4.804759446993787e-05
157.0074628981545	2.8940767195571016e-05
158.00751043253766	1.0636350513752014e-05
159.00755796692079	-7.668066168066508e-06
160.00760550130394	-4.043703627287921e-06
161.0076530356871	3.4989138570782763e-06
162.00770057007026	1.1041531341444276e-05
163.00774810445338	-1.5224760126301751e-05
164.00779563883657	-4.766686134022687e-05
165.0078431732197	-8.010896255415113e-05
166.00789070760283	-9.020984830355153e-05
167.00793824198598	-9.614002325522934e-05
168.00798577636914	-0.00010207019820690731
169.0080333107523	-4.639987706041816e-05
170.00808084513542	2.1019133608592678e-05
171.0081283795186	8.843814427760531e-05
172.00817591390174	8.65876902255612e-05
173.00822344828487	7.12440188381453e-05
174.00827098266805	5.5900347450729e-05
175.00831851705118	3.526930027365711e-05
176.00836605143434	1.358664551129531e-05
177.0084135858175	-8.09600925106706e-06
178.00846112020065	2.5215824673727837e-05
179.00850865458378	6.969239658453168e-05
180.00855618896693	0.00011416896849533671
181.0086037233501	8.635205404834824e-05
182.00865125773322	4.3558142907172524e-05
183.0086987921164	7.642317659956678e-07
184.00874632649953	2.312415814783036e-05
185.0087938608827	5.9254475998690495e-05
186.00884139526585	9.538479384955159e-05
187.00888892964898	8.590713906641491e-05
188.00893646403213	6.659806408279047e-05
189.0089839984153	4.728898909916551e-05
190.00903153279845	2.174191070207682e-05
191.00907906718157	-5.176310090783588e-06
192.00912660156476	-3.209453088364472e-05
193.0091741359479	-3.4631419966315644e-05
194.00922167033102	-3.170505135532085e-05
195.00926920471417	-2.877868274432605e-05
196.00931673909733	-5.0493084829717895e-05
197.0093642734805	-7.783485267180224e-05
198.00941180786361	-0.0001051766205138866
199.0094593422468	-8.927857464450087e-05
200.00950687662993	-6.331830847871477e-05
201.00955441101308	-3.735804231292868e-05
202.00960194539624	3.781739228927668e-06
203.00964947977937	4.8520113942950096e-05
204.00969701416253	9.325848865697252e-05
205.00974454854568	0.00011868632770439638
206.00979208292884	0.00013945141080533692
207.00983961731197	0.00016021649390627745
208.00988715169512	0.00016549083186791
209.00993468607828	0.0001669562157690582
210.0099822204614	0.00016842159967020643
211.0100297548446	0.00013750571597114967
212.01007728922772	9.848345857742504e-05
213.01012482361088	5.9461201183700374e-05
214.01017235799404	1.2928708347916595e-05
215.0102198923772	-3.55176111017525e-05
216.01026742676032	-8.39639305514216e-05
217.01031496114348	-0.00010963184209447829
218.01036249552664	-0.00012939219420104463
219.01041002990976	-0.00014915254630761102
220.01045756429292	-0.00012487871522104152
221.01050509867608	-8.898418583071777e-05
222.01055263305923	-5.308965644039495e-05
223.01060016744236	-3.0298527706922214e-05
224.01064770182552	-1.1025497685481189e-05
225.01069523620868	8.247532335959324e-06
226.0107427705918	3.3568456496920046e-05
227.010790304975	6.0541100178314336e-05
228.01083783935812	8.75137438597079e-05
229.01088537374127	2.939223601065167e-05
230.01093290812443	-5.2364973368543314e-05
231.01098044250756	-0.00013412218274773616
232.01102797689072	-0.00012699611740756928
233.01107551127387	-9.476529051223191e-05
234.01112304565703	-6.25344636168954e-05
235.01117058004016	-7.702405010388634e-05
236.01121811442334	-0.00010493024017342394
237.01126564880647	-0.0001328364302429608
238.0113131831896	-0.0001271240596982427
239.01136071757279	-0.00011159761395524065
240.01140825195588	-9.607116821223943e-05
241.01145578633907	-0.00010006747165847183
242.01150332072223	-0.00010985648705967971
243.01155085510536	-0.00011964550246088706
244.0115983894885	-0.00011031875042570942
245.01164592387167	-9.522776575661463e-05
246.0116934582548	-8.013678108752062e-05
247.01174099263795	-5.9312184565464166e-05
248.01178852702114	-3.673077044052781e-05
249.01183606140424	-1.414935631559265e-05
250.01188359578742	3.922486694655489e-05
251.01193113017058	0.00010218509825194546
252.01197866455368	0.0001651453295573327
253.01202619893687	0.0001664058955228082
254.01207373332002	0.00014815434210631239
255.01212126770315	0.00012990278868981757
256.0121688020863	0.0001081754890451978
257.01221633646946	8.533171837994302e-05
258.0122638708526	6.248794771468943e-05
259.0123114052358	5.761259782083984e-05
260.01235893961893	5.859907700100989e-05
261.01240647400203	5.958555618117989e-05
262.0124540083852	1.8377968049009013e-05
263.0125015427684	-3.680765126732094e-05
264.0125490771515	-9.199327058364795e-05
265.01259661153466	-9.43619919484431e-05
266.0126441459178	-7.896478965768738e-05
267.0126916803009	-6.356758736693249e-05
268.01273921468413	-1.4450524690224601e-05
269.0127867490673	4.618173085178228e-05
270.0128342834504	0.00010681398639378597
271.01288181783355	6.810521260599517e-05
272.0129293522167	-5.041425770798274e-06
273.01297688659986	-7.818806414758787e-05
274.013024420983	-5.8584023768321214e-05
275.0130719553662	-6.343783206793596e-06
276.0131194897493	4.589645735473126e-05
277.0131670241325	2.6854982924583754e-05
278.01321455851564	-1.7642459177725836e-05
279.01326209289874	-6.213990128003309e-05
280.0133096272819	-8.578774027646657e-05
281.01335716166506	-0.00010187955278098683
282.0134046960482	-0.00011797136528550626
283.01345223043137	-0.00011764587431585022
284.01349976481447	-0.00011128314817018177
285.0135472991976	-0.00010492042202451298
286.01359483358084	-9.607445846595596e-05
287.01364236796394	-8.630197961574228e-05
288.0136899023471	-7.652950076552808e-05
289.01373743673025	-4.9976540859833656e-05
290.01378497111335	-1.7071801476492314e-05
291.01383250549657	1.583293790685077e-05
292.0138800398797	2.2927218683317903e-05
293.0139275742628	2.011082963568602e-05
294.013975108646	1.7294440588053987e-05
295.01402264302914	2.344182137674159e-05
296.0140701774123	3.308040362396855e-05
297.01411771179545	4.271898587119603e-05
298.0141652461786	1.6936909097202225e-06
299.0142127805617	-5.9345019033220396e-05
300.0142603149449	-0.00012038372897616428
301.0143078493281	-0.00011228710469098226
302.0143553837112	-7.649403655576325e-05
303.01440291809433	-4.070096842054234e-05
304.0144504524775	3.601917560078255e-06
305.01449798686065	5.136187941655191e-05
306.0145455212438	9.912184127302809e-05
307.01459305562696	8.078194287782189e-05
308.01464059001006	3.5213881400290715e-05
309.0146881243932	-1.0354180077242881e-05
310.01473565877643	-1.253643540178863e-05
311.01478319315953	3.40138322183609e-06
312.0148307275427	1.9339201845461653e-05
313.01487826192584	5.837383348958594e-05
314.014925796309	0.00010718815420666223
315.01497333069216	0.00015600247492374112
316.0150208650753	0.00012797312122647954
317.0150683994584	6.695934760107308e-05
318.01511593384157	5.945573975663392e-06
319.0151634682248	-2.5123974903267415e-05
320.0152110026079	-4.3164574171716515e-05
321.01525853699104	-6.120517344016656e-05
322.0153060713742	-1.3309734036027208e-05
323.01535360575735	6.366497199796166e-05
324.0154011401405	0.0001406396780319546
325.01544867452367	0.00013418093287960472
326.01549620890677	9.042856987036213e-05
327.0155437432899	4.66762068611172e-05
328.01559127767314	7.554235316267127e-06
329.01563881205624	-2.9470168797452782e-05
330.0156863464394	-6.649457291117464e-05
331.01573388082255	-4.563014886523472e-05
332.01578141520565	1.808942764275224e-06
333.01582894958887	4.924803439378767e-05
334.01587648397197	4.3936834877959654e-05
335.0159240183551	1.4087335231552859e-05
336.0159715527383	-1.5762164414853937e-05
337.01601908712144	-3.712113030671704e-05
338.0160666215046	-5.447812909589464e-05
339.01611415588775	-7.183512788507223e-05
340.01616169027085	-0.00010482066174676885
341.016209224654	-0.0001452698027262625
342.0162567590372	-0.00018571894370575614
343.0163042934203	-0.0001768118076627863
344.0163518278035	-0.0001440244357149569
345.01639936218663	-0.00011123706376712748
346.01644689656973	-0.00010058890165306685
347.01649443095295	-0.00010079245658814473
348.0165419653361	-0.0001009960115232226
349.0165894997192	-6.678787252134777e-05
350.01663703410236	-1.5493058035445867e-05
351.0166845684856	3.580175645045603e-05
352.0167321028687	7.094416706019004e-05
353.01677963725183	9.796239759940454e-05
354.016827171635	0.00012498062813861904
355.0168747060181	0.00010419869485209132
356.0169222404013	5.906452153382652e-05
357.01696977478446	1.3930348215561717e-05
358.01701730916756	-1.8988590932814543e-06
359.0170648435507	-2.606568560769131e-06
360.01711237793387	-3.3142780282568074e-06
361.017159912317	1.406928607152776e-05
362.0172074467002	4.0907474695632235e-05
363.01725498108334	6.774566331973671e-05
364.01730251546644	6.585169875183911e-05
365.01735004984965	4.8750755019714154e-05
366.0173975842328	3.164981128758921e-05
367.0174451186159	2.0648066502679492e-05
368.01749265299907	1.2915404023474274e-05
369.0175401873822	5.182741544269058e-06
370.0175877217654	-2.141181583890148e-05
371.01763525614854	-5.8243918996982494e-05
372.0176827905317	-9.50760221550635e-05
373.0177303249148	-8.944621199050414e-05
374.01777785929795	-6.0479278263385425e-05
375.01782539368116	-3.151234453626669e-05
376.01787292806426	-2.030696225567919e-05
377.0179204624474	-1.8985885943246898e-05
378.0179679968306	-1.7664809630814603e-05
379.01801553121373	-2.38835881865633e-05
380.0180630655969	-3.435077845168607e-05
381.01811059998005	-4.4817968716808844e-05
382.01815813436315	-6.285380476868755e-05
383.0182056687463	-8.520743014976356e-05
384.0182532031295	-0.00010756105553083959
385.0183007375126	-6.874543331371577e-05
386.0183482718958	5.399722159781385e-06
387.0183958062789	7.954487763327459e-05
388.01844334066203	6.602116794272204e-05
389.01849087504525	1.2356438235089873e-06
390.01853840942834	-6.354988029570063e-05
391.0185859438115	-0.00010772267993374301
392.01863347819466	-0.00013969405218248768
393.0186810125778	-0.00017166542443123068
394.018728546961	-0.00011597643477392495
395.01877608134413	-7.759736214323594e-06
396.01882361572723	0.00010045696234527206
397.0188711501104	0.00012211639703056215
398.0189186844936	9.127303282619976e-05
399.0189662188767	6.0429668621838993e-05
400.01901375325986	4.615583755202276e-05
401.019061287643	4.205543153421939e-05
402.01910882202617	3.7955025516416235e-05
403.0191563564093	5.314533024244715e-05
404.0192038907925	8.032421735367431e-05
405.0192514251756	0.00010750310446490003
406.01929895955874	9.354850748792892e-05
407.01934649394195	5.3719948333127425e-05
408.01939402832505	1.3891389178328029e-05
409.0194415627082	-1.0690476296749212e-05
410.01948909709137	-2.5565531186506276e-05
411.01953663147447	-4.044058607626256e-05
412.0195841658577	-2.5964311171426517e-05
413.01963170024084	7.424428686866143e-06
414.01967923462394	4.081316854515703e-05
415.0197267690071	7.021453574419953e-05
416.01977430339025	9.701566481560666e-05
417.0198218377734	0.0001238167938870124
418.01986937215656	0.00012595269145406472
419.0199169065397	0.00011181046602743585
420.0199644409228	9.766824060080775e-05
421.02001197530603	6.217217981585655e-05
422.0200595096892	1.2414291984195258e-05
423.0201070440723	-3.734359584746341e-05
424.02015457845545	-3.9639818072025795e-05
425.0202021128386	-9.857830588232096e-06
426.02024964722176	1.9924156895560025e-05
427.0202971816049	5.260461938806167e-05
428.0203447159881	8.726748837789672e-05
429.0203922503712	0.00012193035736772994
430.0204397847544	9.536595612081443e-05
431.02048731913754	2.6426273842986875e-05
432.02053485352064	-4.251340843483705e-05
433.0205823879038	-3.677235955532888e-05
434.02062992228696	2.126965792735956e-05
435.0206774566701	7.931167541004494e-05
436.02072499105327	0.00011617506558267065
437.02077252543637	0.00013803049162568748
438.0208200598195	0.00015988591766870545
439.0208675942027	0.00013527160210730275
440.02091512858584	7.733715146748007e-05
441.020962662969	1.940270082765435e-05
442.02101019735215	7.780795582765938e-06
443.02105773173525	2.9758773556240722e-05
444.02110526611847	5.173675152971667e-05
445.0211528005016	7.897550232019959e-05
446.0212003348847	0.00011007598186546703
447.0212478692679	0.00014117646141073616
448.02129540365104	0.00011693202549649342
449.0213429380342	5.15826603614967e-05
450.02139047241735	-1.3766704773503476e-05
451.0214380068005	-7.109903507297915e-05
452.0214855411836	-0.00012240708559233074
453.02153307556677	-0.0001737151361116851
454.02158060995	-0.0001691481571491156
455.0216281443331	-0.0001221020191245456
456.02167567871624	-7.505588109997313e-05
457.0217232130994	-3.4566412094344963e-05
458.02177074748255	8.79927058092202e-07
459.0218182818657	3.6326266210531244e-05
460.02186581624886	4.95287078087784e-05
461.02191335063196	4.542187577885508e-05
462.0219608850151	4.131504374893155e-05
463.02200841939833	3.198662054914725e-05
464.02205595378143	1.8547508819499078e-05
465.0221034881646	5.108397089850186e-06
466.02215102254775	-1.3355384894785335e-05
467.0221985569309	-3.58209731256818e-05
468.02224609131406	-5.828656135657945e-05
469.0222936256972	-3.303716210703806e-05
470.0223411600803	3.065667192757732e-05
471.0223886944635	9.435050596219607e-05
472.0224362288467	0.00010358889487997504
473.0224837632298	6.844150015384319e-05
474.02253129761294	3.3294105427709494e-05
475.0225788319961	1.658629157091085e-06
476.0226263663792	-2.7081070858724643e-05
477.0226739007624	-5.58207708745419e-05
478.02272143514557	-4.8534976153791825e-05
479.0227689695287	-1.1199286099594215e-05
480.02281650391177	2.6136403954599434e-05
481.022864038295	3.619098923319551e-05
