#easy_tsv
#k: 0.032 
#R: 3400.0 
#displacement [nm] 	 #force [nN] 
0.0	0.00021187038506689497
1.0000475343831496	0.00016943723361397992
2.0000950687662993	0.0001270040821610649
3.0001426031494494	8.457093070814987e-05
4.0001901375325986	9.855128944338691e-05
5.000237671915748	0.00011269346855385049
6.000285206298899	0.00012683564766431408
7.0003327406820475	0.00010938971816227209
8.000380275065197	9.176204835677e-05
9.000427809448347	7.41343785512679e-05
10.000475343831496	4.386871220197383e-05
11.000522878214646	1.3493663247763923e-05
12.000570412597797	-1.688138570644604e-05
13.000617946980945	-1.2246914792572853e-05
14.000665481364095	-7.207262311559681e-06
15.000713015747243	-2.1676098305465146e-06
16.000760550130394	1.8294032602007992e-05
17.000808084513544	3.8979429828408686e-05
18.000855618896693	5.966482705480931e-05
19.000903153279843	6.33563937193646e-05
20.000950687662993	6.675122692826044e-05
21.000998222046142	7.014606013715628e-05
22.001045756429292	-1.3407501277771776e-05
23.00109329081244	-9.87374976783086e-05
24.001140825195595	-0.0001840674940788454
25.00118835957874	-0.00011273223906160794
26.00123589396189	-3.772820289133749e-05
27.00128342834504	3.727583327893272e-05
28.00133096272819	6.700683932755767e-05
29.00137849711134	9.554161627778476e-05
30.001426031494486	0.00012407639322801185
31.001473565877642	3.67500338083498e-05
32.00152110026079	-5.3987838121052435e-05
33.00156863464394	-0.0001447257100504547
34.00161616902709	-7.062352877529141e-05
35.00166370341024	8.83347741036789e-06
36.00171123779339	8.829048359602717e-05
37.00175877217654	9.709070105824918e-05
38.001806306559686	0.0001033795558625949
39.001853840942836	0.00010966841066694057
40.001901375325986	0.00010972600907487765
41.00194890970914	0.00010954295988994886
42.001996444092285	0.00010935991070502006
43.002043978475434	0.00011852421433498926
44.002091512858584	0.00012807843419170123
45.002139047241734	0.0001376326540484133
46.00218658162488	9.078477384665162e-05
47.00223411600803	4.1408544086622965e-05
48.00228165039119	-7.967685673406047e-06
49.00232918477433	-1.4465902706960283e-05
50.00237671915748	-1.8907731842177006e-05
51.00242425354063	-2.3349560977393725e-05
52.00247178792378	-1.2690672052794624e-05
53.00251932230693	-1.2599904492066735e-06
54.00256685669008	1.0170691154381276e-05
55.00261439107323	-5.379130102017028e-06
56.00266192545638	-2.2393434345440583e-05
57.00270945983953	-3.940773858886402e-05
58.00275699422268	-0.00012466201692584616
59.002804528605836	-0.00021383791826439782
60.00285206298897	-0.00030301381960294826
61.00289959737213	-0.00020568743789339456
62.002947131755285	-9.704479117783022e-05
63.00299466613842	1.1597855537732713e-05
64.00304220052158	1.622031582435173e-05
65.00308973490473	1.419547342350597e-05
66.00313726928788	1.2170631022660233e-05
67.00318480367103	-1.3252138259379771e-05
68.00323233805418	-4.024611012936571e-05
69.00327987243732	-6.724008199935129e-05
70.00332740682047	-2.353325678876454e-05
71.00337494120362	2.5152222026722835e-05
72.00342247558677	7.383770084221085e-05
73.00347000996993	9.175523072161945e-05
74.00351754435307	0.00010740497881496417
75.00356507873623	0.0001230547269083091
76.00361261311937	6.100653553103016e-05
77.00366014750252	-7.02545201972567e-06
78.00370768188567	-7.50574395704824e-05
79.00375521626883	-0.0001094876604205228
80.00380275065197	-0.00014121826106909457
81.00385028503513	-0.00017294886171766676
82.00389781941828	-0.00014333369104386668
83.00394535380141	-0.00010858447527047702
84.00399288818457	-7.383525949708688e-05
85.00404042256771	-4.065648888138587e-05
86.00408795695087	-7.6144408746956116e-06
87.00413549133403	2.542760713199466e-05
88.00418302571717	3.388809194650758e-05
89.00423056010032	4.01251671841101e-05
90.00427809448347	4.636224242171262e-05
91.00432562886661	1.6770191517500887e-05
92.00437316324977	-1.618485358751053e-05
93.00442069763292	-4.9139898692521935e-05
94.00446823201607	1.6513487902089508e-05
95.00451576639922	9.176099823120424e-05
96.00456330078238	0.000167008508560319
97.00461083516551	0.00010026661558774203
98.00465836954866	1.9219300336112066e-05
99.00470590393181	-6.182801491551684e-05
100.00475343831496	-5.879369948666977e-05
101.00480097269812	-4.699584875397026e-05
102.00484850708126	-3.51979980212709e-05
103.00489604146442	-2.593936512077427e-05
104.00494357584756	-1.6954269792868327e-05
105.0049911102307	-7.96917446496251e-06
106.00503864461386	-3.065269567086933e-05
107.00508617899702	-5.685922338131841e-05
108.00513371338016	-8.306575109176716e-05
109.00518124776332	-8.310121292839778e-05
110.00522878214646	-8.013251652127855e-05
111.00527631652962	-7.716382011415929e-05
112.00532385091276	-7.805334958288146e-05
113.0053713852959	-7.939952043552004e-05
114.00541891967906	-8.074569128815863e-05
115.00546645406222	-7.383967700678923e-05
116.00551398844536	-6.592735710702977e-05
117.00556152282851	-5.8015037207270216e-05
118.00560905721167	-2.2859499759011202e-05
119.0056565915948	1.57165901859118e-05
120.00570412597794	5.429268013083479e-05
121.00575166036111	6.542917017047065e-05
122.00579919474426	7.302069940036256e-05
123.0058467291274	8.061222863025448e-05
124.00589426351057	5.0594465771564754e-05
125.00594179789371	1.5580297893399198e-05
126.00598933227684	-1.9433869984766348e-05
127.00603686666001	-1.575520775835265e-05
128.00608440104315	-6.793699966378043e-06
129.0061319354263	2.16780782559656e-06
130.00617946980947	-1.0467320590674479e-05
131.0062270041926	-2.613115274700012e-05
132.00627453857575	-4.1794984903325766e-05
133.0063220729589	4.202610797341003e-06
134.00636960734207	5.907763526136094e-05
135.0064171417252	0.00011395265972538087
136.00646467610835	0.00010284052649647861
137.0065122104915	8.198037701236075e-05
138.00655974487464	6.112022752824288e-05
139.00660727925782	8.144295245038844e-05
140.00665481364095	0.00010800513504325997
141.0067023480241	0.00013456731763613155
142.00674988240723	9.335047027356684e-05
143.00679741679042	4.160677567454055e-05
144.00684495117355	-1.0136918924484378e-05
145.00689248555668	-1.5098073478268065e-05
146.00694001993986	-1.2614177505719163e-05
147.006987554323	-1.013028153317033e-05
148.00703508870615	2.0145926256339957e-05
149.0070826230893	5.495221165206163e-05
150.00713015747246	8.97584970477824e-05
151.0071776918556	3.241264033437826e-05
152.00722522623875	-4.031148376055602e-05
153.0072727606219	-0.00011303560785548837
154.00732029500503	-6.658749240089091e-05
155.00736782938822	2.1365729314732399e-07
156.00741536377134	6.701480698718379e-05
157.0074628981545	1.2516991580586177e-05
158.00751043253766	-6.317424717677212e-05
159.00755796692079	-0.00013886548593412845
160.00760550130394	-7.930708153219974e-05
161.0076530356871	4.417856608244476e-06
162.00770057007026	8.814279474868643e-05
163.00774810445338	7.866355199983027e-05
164.00779563883657	5.215887700363289e-05
165.0078431732197	2.5654202007436215e-05
166.00789070760283	3.335105145178776e-05
167.00793824198598	4.743272214766323e-05
168.00798577636914	6.151439284353909e-05
169.0080333107523	1.7684812220532106e-05
170.00808084513542	-3.718983061304563e-05
171.0081283795186	-9.206447344662479e-05
172.00817591390174	-9.219807375567666e-05
173.00822344828487	-8.166849387526557e-05
174.00827098266805	-7.11389139948542e-05
175.00831851705118	-4.683280153388807e-05
176.00836605143434	-1.9786670822460494e-05
177.0084135858175	7.259459888967785e-06
178.00846112020065	2.3255418534859493e-05
179.00850865458378	3.700802009611963e-05
180.00855618896693	5.076062165738013e-05
181.0086037233501	1.9817207607045135e-05
182.00865125773322	-2.0385852253497042e-05
183.0086987921164	-6.058891211404027e-05
184.00874632649953	-8.128554444791699e-05
185.0087938608827	-9.78594550294565e-05
186.00884139526585	-0.00011443336561099644
187.00888892964898	-9.730070630798638e-05
188.00893646403213	-7.290213639957715e-05
189.0089839984153	-4.850356649116726e-05
190.00903153279845	-2.1772873323049807e-05
191.00907906718157	5.470431471193005e-06
192.00912660156476	3.2713736265436534e-05
193.0091741359479	3.6149718485735624e-05
194.00922167033102	3.4251064363618555e-05
195.00926920471417	3.235241024150149e-05
196.00931673909733	2.40911301103905e-05
197.0093642734805	1.4376777582850687e-05
198.00941180786361	4.662425055310876e-06
199.0094593422468	-1.5620926819714274e-05
200.00950687662993	-3.8363761995396555e-05
201.00955441101308	-6.110659717107883e-05
202.00960194539624	-4.2901576134556324e-05
203.00964947977937	-1.4989086043229768e-05
204.00969701416253	1.2923404048096789e-05
205.00974454854568	-1.562265610142671e-05
206.00979208292884	-5.7801297211437574e-05
207.00983961731197	-9.997993832144844e-05
208.00988715169512	-4.664334489171815e-05
209.00993468607828	3.0179087157552155e-05
210.0099822204614	0.00010700151920682245
211.0100297548446	9.1127509247158e-05
212.01007728922772	5.204773698170108e-05
213.01012482361088	1.2967964716244145e-05
214.01017235799404	-8.204986059976093e-06
215.0102198923772	-2.48147574524576e-05
216.01026742676032	-4.142452884493911e-05
217.01031496114348	-7.995146604735938e-05
218.01036249552664	-0.0001241626003294181
219.01041002990976	-0.00016837373461147686
220.01045756429292	-0.0001528809485810694
221.01050509867608	-0.00012163219309258221
222.01055263305923	-9.038343760409586e-05
223.01060016744236	-0.00010097596671363838
224.01064770182552	-0.00012280235589576857
225.01069523620868	-0.00014462874507789817
226.0107427705918	-0.0001180184498449318
227.010790304975	-7.817977869998025e-05
228.01083783935812	-3.834110755502976e-05
229.01088537374127	4.8864967293766265e-06
230.01093290812443	4.90554090913564e-05
231.01098044250756	9.322432145333505e-05
232.01102797689072	5.488648949381911e-05
233.01107551127387	-6.755075923139481e-06
234.01112304565703	-6.839664134009645e-05
235.01117058004016	-5.918070428200198e-05
236.01121811442334	-2.9616766152567074e-05
237.01126564880647	-5.2828023132954056e-08
238.0113131831896	9.083838841749376e-06
239.01136071757279	1.2257288584211566e-05
240.01140825195588	1.543073832667359e-05
241.01145578633907	5.258558966864099e-05
242.01150332072223	9.982326640493469e-05
243.01155085510536	0.0001470609431412259
244.0115983894885	0.00012148336475816005
245.01164592387167	7.394883009788506e-05
246.0116934582548	2.6414295437612598e-05
247.01174099263795	7.24100650244676e-05
248.01178852702114	0.0001470641549019077
249.01183606140424	0.00022171824477934388
250.01188359578742	0.00019415107942895364
251.01193113017058	0.00013476175162375052
252.01197866455368	7.537242381855054e-05
253.01202619893687	8.647683259133128e-05
254.01207373332002	0.00011987442879410966
255.01212126770315	0.00015327202499688627
256.0121688020863	6.675261949621317e-05
257.01221633646946	-5.828624297747654e-05
258.0122638708526	-0.00018332510545115966
259.0123114052358	-0.00015566380124041405
260.01235893961893	-7.818719672776737e-05
261.01240647400203	-7.105922151247655e-07
262.0124540083852	-5.7587227658689185e-06
263.0125015427684	-3.814560953657003e-05
264.0125490771515	-7.053249630726943e-05
265.01259661153466	-5.574454890233711e-05
266.0126441459178	-2.508848854619307e-05
267.0126916803009	5.567571809949338e-06
268.01273921468413	-3.4921457840232757e-06
269.0127867490673	-2.6114637293913694e-05
270.0128342834504	-4.873712880380292e-05
271.01288181783355	-9.755716775994182e-05
272.0129293522167	-0.00015545892851425884
273.01297688659986	-0.00021336068926857283
274.013024420983	-0.00019669826792921213
275.0130719553662	-0.00015379893268395914
276.0131194897493	-0.00011089959743870838
277.0131670241325	-5.5030614601279544e-05
278.01321455851564	5.470059966129711e-06
279.01326209289874	6.597073453353576e-05
280.0133096272819	1.2061444766163716e-05
281.01335716166506	-8.3310731227988e-05
282.0134046960482	-0.00017868290722213468
283.01345223043137	-0.00018611968200613792
284.01349976481447	-0.00016121943516915808
285.0135472991976	-0.0001363191883321769
286.01359483358084	-8.939493109045623e-05
287.01364236796394	-3.4253343392254396e-05
288.0136899023471	2.0888244305950362e-05
289.01373743673025	4.300872388805689e-05
290.01378497111335	5.262999107168693e-05
291.01383250549657	6.225125825531747e-05
292.0138800398797	7.311733146325288e-05
293.0139275742628	8.446138383807657e-05
294.013975108646	9.580543621290085e-05
295.01402264302914	4.432529197402705e-05
296.0140701774123	-3.162356697465641e-05
297.01411771179545	-0.00010757242592334391
298.0141652461786	-0.00010960202911992118
299.0142127805617	-8.24317995758245e-05
300.0142603149449	-5.5261570031726396e-05
301.0143078493281	-5.9456943130059545e-05
302.0143553837112	-7.621775273213717e-05
303.01440291809433	-9.297856233421567e-05
304.0144504524775	-9.413693485629706e-05
305.01449798686065	-8.895688629654899e-05
306.0145455212438	-8.377683773680063e-05
307.01459305562696	-6.442180054503393e-05
308.01464059001006	-3.922773584711117e-05
309.0146881243932	-1.4033671149187083e-05
310.01473565877643	-1.0427840324152222e-05
311.01478319315953	-1.583833139959721e-05
312.0148307275427	-2.124882247504248e-05
313.01487826192584	1.7122712946961728e-05
314.014925796309	7.403250322468278e-05
315.01497333069216	0.00013094229350240683
316.0150208650753	6.000097893328e-05
317.0150683994584	-6.581921229922944e-05
318.01511593384157	-0.00019163940353174552
319.0151634682248	-0.00018410649290975488
320.0152110026079	-0.0001185506794016949
321.01525853699104	-5.299486589363146e-05
322.0153060713742	-4.1760634950950765e-05
323.01535360575735	-5.4483435928524086e-05
324.0154011401405	-6.720623690609807e-05
325.01544867452367	-1.683901301741776e-05
326.01549620890677	6.1728593864995e-05
327.0155437432899	0.0001402962007474119
328.01559127767314	0.0001316294604645768
329.01563881205624	8.344555907418338e-05
330.0156863464394	3.52616576837874e-05
331.01573388082255	2.636061327102232e-05
332.01578141520565	3.549290791694918e-05
333.01582894958887	4.462520256287652e-05
334.01587648397197	4.256609104039737e-05
335.0159240183551	3.530097823373706e-05
336.0159715527383	2.8035865427076754e-05
337.01601908712144	5.763152820435195e-06
338.0160666215046	-2.3583310674681816e-05
339.01611415588775	-5.2929774169798825e-05
340.01616169027085	-4.67718386270454e-05
341.016209224654	-2.3658322529718556e-05
342.0162567590372	-5.448064323917104e-07
343.0163042934203	-1.7748494849911248e-06
344.0163518278035	-1.478312968054908e-05
345.01639936218663	-2.779140987610704e-05
346.01644689656973	6.997433528031345e-06
347.01649443095295	6.521443290346217e-05
348.0165419653361	0.000123431432278893
349.0165894997192	0.00010427111121290811
350.01663703410236	4.669009610529282e-05
351.0166845684856	-1.0890919002322466e-05
352.0167321028687	-2.4025224712290924e-05
353.01677963725183	-1.4804153881593787e-05
354.016827171635	-5.583083050896646e-06
355.0168747060181	1.324940014835195e-05
356.0169222404013	3.697850717291425e-05
357.01696977478446	6.070761419747656e-05
358.01701730916756	5.161010851695008e-05
359.0170648435507	2.557391903110927e-05
360.01711237793387	-4.6227045473153585e-07
361.017159912317	-1.915059930703454e-05
362.0172074467002	-3.399888543991455e-05
363.01725498108334	-4.884717157279455e-05
364.01730251546644	-4.1265137534807665e-05
365.01735004984965	-2.1811476292066664e-05
366.0173975842328	-2.3578150493256655e-06
367.0174451186159	1.315055905624767e-05
368.01749265299907	2.654431639285614e-05
369.0175401873822	3.993807372946461e-05
370.0175877217654	2.006724006514798e-05
371.01763525614854	-1.785839534573182e-05
372.0176827905317	-5.578403075661162e-05
373.0177303249148	-7.909670653476311e-05
374.01777785929795	-9.437808042662509e-05
375.01782539368116	-0.00010965945431848705
376.01787292806426	-7.625168286308685e-05
377.0179204624474	-1.5748394927092238e-05
378.0179679968306	4.47548930089024e-05
379.01801553121373	9.758362194576296e-05
380.0180630655969	0.00014608803869277468
381.01811059998005	0.0001945924554397864
382.01815813436315	0.0001891343343437179
383.0182056687463	0.00015289146302418204
384.0182532031295	0.0001166485917046462
385.0183007375126	0.00010837563827090036
386.0183482718958	0.00011625727530416226
387.0183958062789	0.00012413891233742377
388.01844334066203	0.00011493176950291344
389.01849087504525	9.57324605698143e-05
390.01853840942834	7.653315163671618e-05
391.0185859438115	4.047413937048948e-05
392.01863347819466	-5.564749462377933e-06
393.0186810125778	-5.160363829524292e-05
394.018728546961	-2.594392718353179e-05
395.01877608134413	4.267891007437687e-05
396.01882361572723	0.0001113017473322819
397.0188711501104	0.00013879736566044696
398.0189186844936	0.00014134656115003297
399.0189662188767	0.0001438957566396188
400.01901375325986	0.00015041717310308107
401.019061287643	0.0001593774689266087
402.01910882202617	0.00016833776475013584
403.0191563564093	0.00016714028386328908
404.0192038907925	0.0001596300577095696
405.0192514251756	0.00015211983155585048
406.01929895955874	0.00013716970589810698
407.01934649394195	0.00011753970245609362
408.01939402832505	9.79096990140813e-05
409.0194415627082	0.000111325086034444
410.01948909709137	0.00014577882751212748
411.01953663147447	0.00018023256898980913
412.0195841658577	0.0001428811370057639
413.01963170024084	5.926219904923008e-05
414.01967923462394	-2.4356738907299298e-05
415.0197267690071	-5.372121295249846e-05
416.01977430339025	-4.77053657404419e-05
417.0198218377734	-4.168951852838567e-05
418.01986937215656	-4.6103953525008316e-05
419.0199169065397	-5.7401981591564536e-05
420.0199644409228	-6.870000965812016e-05
421.02001197530603	-4.298754622782601e-05
422.0200595096892	7.4435319049130664e-06
423.0201070440723	5.7874610037649466e-05
424.02015457845545	5.242382718766504e-05
425.0202021128386	9.20382506213788e-06
426.02024964722176	-3.4016177063387e-05
427.0202971816049	-5.033624559128973e-05
428.0203447159881	-4.8258155438659697e-05
429.0203922503712	-4.618006528602977e-05
430.0204397847544	-4.390336574828569e-05
431.02048731913754	-4.1489209020680926e-05
432.02053485352064	-3.907505229307629e-05
433.0205823879038	-4.252059562130879e-05
434.02062992228696	-5.0069847950444606e-05
435.0206774566701	-5.761910027958003e-05
436.02072499105327	-5.506206114577939e-05
437.02077252543637	-4.534332746310522e-05
438.0208200598195	-3.5624593780430535e-05
439.0208675942027	-1.933840806458206e-05
440.02091512858584	1.6568287738047432e-06
441.020962662969	2.265206561219265e-05
442.02101019735215	3.673228681042092e-05
443.02105773173525	4.579564452206681e-05
444.02110526611847	5.485900223371318e-05
445.0211528005016	5.819763523511003e-05
446.0212003348847	5.733397043810415e-05
447.0212478692679	5.6470305641098225e-05
448.02129540365104	3.523669749940869e-05
449.0213429380342	-1.1257634458684213e-06
450.02139047241735	-3.748822439114745e-05
451.0214380068005	-4.357984734670746e-05
452.0214855411836	-2.6924906146062775e-05
453.02153307556677	-1.026996494541721e-05
454.02158060995	-2.0788763008668168e-05
455.0216281443331	-5.1966478001418005e-05
456.02167567871624	-8.31441929941695e-05
457.0217232130994	-9.23093964446735e-05
458.02177074748255	-8.454344876010787e-05
459.0218182818657	-7.677750107554182e-05
460.02186581624886	-5.55221084071495e-05
461.02191335063196	-2.376979208820006e-05
462.0219608850151	7.982524230751049e-06
463.02200841939833	2.9852474488094972e-05
464.02205595378143	4.394254932128553e-05
465.0221034881646	5.8032624154476824e-05
466.02215102254775	2.9943751063055164e-05
467.0221985569309	-3.1737769644983885e-05
468.02224609131406	-9.34192903530262e-05
469.0222936256972	-0.00010844431665500913
470.0223411600803	-8.58777464543345e-05
471.0223886944635	-6.331117625365867e-05
472.0224362288467	-6.41707268265146e-05
473.0224837632298	-8.412454292303163e-05
474.02253129761294	-0.00010407835901954971
475.0225788319961	-7.155795880565601e-05
476.0226263663792	4.230413459906418e-06
477.0226739007624	8.001878572547286e-05
478.02272143514557	8.791249234979115e-05
479.0227689695287	3.91733168683154e-05
480.02281650391177	-9.565858613155181e-06
481.022864038295	-2.7624214185108883e-05
