#easy_tsv
#k: 0.03 
#R: 3400.0 
#displacement [nm] 	 #force [nN] 
0.0	0.0001556814352478264
1.0000475343831496	6.331243560532996e-05
2.0000950687662993	-2.9056564037166475e-05
3.0001426031494494	-0.0001214255636796629
4.0001901375325986	-6.421676228122685e-05
5.000237671915748	-6.578901676773033e-06
6.000285206298899	5.105895892768082e-05
7.0003327406820475	4.6316910553969025e-05
8.000380275065197	4.121596308545623e-05
9.000427809448347	3.611501561694344e-05
10.000475343831496	5.1562000432758794e-05
11.000522878214646	6.718682881350202e-05
12.000570412597797	8.281165719424525e-05
13.000617946980945	6.019335323099397e-05
14.000665481364095	3.713244358923385e-05
15.000713015747243	1.4071533947473764e-05
16.000760550130394	-3.67234742737621e-05
17.000808084513544	-8.792087139096145e-05
18.000855618896693	-0.00013911826850816064
19.000903153279843	-0.00013573383423703822
20.000950687662993	-0.00013139633318175935
21.000998222046142	-0.00012705883212648048
22.001045756429292	-4.051685100147171e-05
23.00109329081244	4.770464260909177e-05
24.001140825195595	0.0001359261362196552
25.00118835957874	0.00011900881863623342
26.00123589396189	9.962936420070173e-05
27.00128342834504	8.024990976517011e-05
28.00133096272819	1.971561369599666e-05
29.00137849711134	-4.1906098412479326e-05
30.001426031494486	-0.00010352781052095531
31.001473565877642	-0.00010024286826086394
32.00152110026079	-9.504676001119634e-05
33.00156863464394	-8.985065176152871e-05
34.00161616902709	-4.0899052560465125e-05
35.00166370341024	9.473942644558233e-06
36.00171123779339	5.984693784958157e-05
37.00175877217654	-1.5235312933750904e-05
38.001806306559686	-9.477663446884221e-05
39.001853840942836	-0.000174317956003933
40.001901375325986	-0.00015533590162049874
41.00194890970914	-0.00013254893025924918
42.001996444092285	-0.00010976195889799975
43.002043978475434	-9.195628199701503e-05
44.002091512858584	-7.435839521358588e-05
45.002139047241734	-5.6760508430156604e-05
46.00218658162488	3.678049766949517e-05
47.00223411600803	0.00013372582296962936
48.00228165039119	0.00023067114826976417
49.00232918477433	0.00014525237007082081
50.00237671915748	5.108758636273852e-05
51.00242425354063	-4.307719734534376e-05
52.00247178792378	-1.683411524265824e-05
53.00251932230693	1.5562972845525517e-05
54.00256685669008	4.7960060933709286e-05
55.00261439107323	6.231622938599004e-05
56.00266192545638	7.569314922996376e-05
57.00270945983953	8.907006907393739e-05
58.00275699422268	1.2947150301376086e-05
59.002804528605836	-6.831915591260091e-05
60.00285206298897	-0.00014958546212657682
61.00289959737213	-0.00017087687968517167
62.002947131755285	-0.00018852924402340876
63.00299466613842	-0.0002061816083616456
64.00304220052158	-8.198834088795808e-05
65.00308973490473	5.126942533273584e-05
66.00313726928788	0.00018452719155342802
67.00318480367103	0.00010749177572982909
68.00323233805418	1.6334886942702723e-05
69.00327987243732	-7.482200184442245e-05
70.00332740682047	-5.210696369125501e-05
71.00337494120362	-2.1373219908613092e-05
72.00342247558677	9.36052387402923e-06
73.00347000996993	2.280433568682596e-05
74.00351754435307	3.497377614373674e-05
75.00356507873623	4.71432166006477e-05
76.00361261311937	3.5049006808921942e-06
77.00366014750252	-4.443137013100413e-05
78.00370768188567	-9.23676409429011e-05
79.00375521626883	-6.017785433388762e-05
80.00380275065197	-2.1550610873152635e-05
81.00385028503513	1.707663258758286e-05
82.00389781941828	-2.6984621233694655e-05
83.00394535380141	-7.796609897769796e-05
84.00399288818457	-0.00012894757672170194
85.00404042256771	-9.881513409739287e-05
86.00408795695087	-6.162093145835998e-05
87.00413549133403	-2.442672881932709e-05
88.00418302571717	-4.835279848661851e-05
89.00423056010032	-7.780721465192736e-05
90.00427809448347	-0.00010726163081723622
91.00432562886661	-5.115102037320946e-05
92.00437316324977	1.2990896420280142e-05
93.00442069763292	7.713281321376973e-05
94.00446823201607	-7.599661580478796e-06
95.00451576639922	-0.00010681689502237041
96.00456330078238	-0.00020603412846426208
97.00461083516551	-0.00018302206911334167
98.00465836954866	-0.0001476954172110609
99.00470590393181	-0.00011236876530878061
100.00475343831496	-0.00010318915987767499
101.00480097269812	-9.67347699661444e-05
102.00484850708126	-9.028038005461392e-05
103.00489604146442	-0.00011735489427231477
104.00494357584756	-0.0001480413140661432
105.0049911102307	-0.00017872773385997122
106.00503864461386	-0.00015875755983423763
107.00508617899702	-0.00013315204302888733
108.00513371338016	-0.00010754652622353732
109.00518124776332	-5.1939335082054706e-05
110.00522878214646	7.11172715423636e-06
111.00527631652962	6.61627893905282e-05
112.00532385091276	0.00010766561337561117
113.0053713852959	0.00014709151079957591
114.00541891967906	0.00018651740822354118
115.00546645406222	0.00013232769569841983
116.00551398844536	6.672210813766099e-05
117.00556152282851	1.1165205769012953e-06
118.00560905721167	-3.5059829858823184e-05
119.0056565915948	-6.754115967725911e-05
120.00570412597794	-0.00010002248949569501
121.00575166036111	-2.486058758317061e-05
122.00579919474426	6.420789603016114e-05
123.0058467291274	0.00015327637964349287
124.00589426351057	0.00010921658529219427
125.00594179789371	4.747066181381564e-05
126.00598933227684	-1.4275261664562962e-05
127.00603686666001	1.6682548275491692e-05
128.00608440104315	6.0297470804023665e-05
129.0061319354263	0.00010391239333255562
130.00617946980947	9.635549109898866e-05
131.0062270041926	8.162227235261083e-05
132.00627453857575	6.688905360623298e-05
133.0063220729589	2.2330572166109262e-05
134.00636960734207	-2.6521868303410448e-05
135.0064171417252	-7.537430877293016e-05
136.00646467610835	-1.5220791995079646e-05
137.0065122104915	6.10357345245678e-05
138.00655974487464	0.00013729226104421523
139.00660727925782	8.389719735833656e-05
140.00665481364095	1.085912378807066e-05
141.0067023480241	-6.217894978219522e-05
142.00674988240723	-4.897763135551887e-05
143.00679741679042	-2.2382363415048163e-05
144.00684495117355	4.212904525421837e-06
145.00689248555668	1.6322075552579306e-05
146.00694001993986	2.6125905242035735e-05
147.006987554323	3.59297349314919e-05
148.00703508870615	7.973058013383519e-05
149.0070826230893	0.0001290728541912968
150.00713015747246	0.00017841512824875712
151.0071776918556	0.00013602610300894163
152.00722522623875	7.832904026113034e-05
153.0072727606219	2.0631977513320603e-05
154.00732029500503	4.321628920711914e-05
155.00736782938822	7.951159239504233e-05
156.00741536377134	0.00011580689558296457
157.0074628981545	8.945744271524271e-05
158.00751043253766	5.2162662863973075e-05
159.00755796692079	1.4867883012704434e-05
160.00760550130394	2.0812103535957256e-05
161.0076530356871	3.4482309407207476e-05
162.00770057007026	4.815251527845733e-05
163.00774810445338	5.247259098200694e-05
164.00779563883657	5.5084696011332556e-05
165.0078431732197	5.769680104065812e-05
166.00789070760283	-1.1848023968277262e-06
167.00793824198598	-7.15461963722005e-05
168.00798577636914	-0.00014190759034757514
169.0080333107523	-0.00013615831793228943
170.00808084513542	-0.00011589291909894586
171.0081283795186	-9.562752026560174e-05
172.00817591390174	-2.552157482243535e-05
173.00822344828487	5.429296776708161e-05
174.00827098266805	0.0001341075103566007
175.00831851705118	0.00012216759494612458
176.00836605143434	9.197861083776505e-05
177.0084135858175	6.178962672940472e-05
178.00846112020065	7.168787221387066e-05
179.00850865458378	8.972444984167012e-05
180.00855618896693	0.00010776102746947009
181.0086037233501	5.2738982344990585e-05
182.00865125773322	-1.7418572305580715e-05
183.0086987921164	-8.75761269561539e-05
184.00874632649953	-6.225199617893045e-05
185.0087938608827	-1.674762373906173e-05
186.00884139526585	2.87567487008082e-05
187.00888892964898	3.799478463629385e-05
188.00893646403213	3.941511737834482e-05
189.0089839984153	4.0835450120395836e-05
190.00903153279845	4.1931818926878894e-05
191.00907906718157	4.295697894149124e-05
192.00912660156476	4.39821389561036e-05
193.0091741359479	2.270859669321552e-06
194.00922167033102	-4.9016606168240446e-05
195.00926920471417	-0.00010030407200580244
196.00931673909733	-5.834812224306432e-05
197.0093642734805	4.902405130558145e-06
198.00941180786361	6.815293250418061e-05
199.0094593422468	4.4768542928793756e-05
200.00950687662993	1.2235757542936517e-06
201.00955441101308	-4.232139142020645e-05
202.00960194539624	-4.3702455896664105e-05
203.00964947977937	-3.508776434257658e-05
204.00969701416253	-2.6473072788489068e-05
205.00974454854568	1.9868389771930664e-05
206.00979208292884	7.531942489359222e-05
207.00983961731197	0.00013077046001525378
208.00988715169512	7.426492660877615e-05
209.00993468607828	-9.769135765039682e-06
210.0099822204614	-9.380319813885551e-05
211.0100297548446	-9.944527599569958e-05
212.01007728922772	-8.546259026987098e-05
213.01012482361088	-7.147990454404235e-05
214.01017235799404	-3.187748831991806e-05
215.0102198923772	1.4253581026536948e-05
216.01026742676032	6.038465037299195e-05
217.01031496114348	4.64397770716911e-05
218.01036249552664	1.6914262517947086e-05
219.01041002990976	-1.2611252035796942e-05
220.01045756429292	-1.4221142639648905e-06
221.01050509867608	2.0511691783932914e-05
222.01055263305923	4.2445497831830146e-05
223.01060016744236	7.148607647043949e-05
224.01064770182552	0.00010243473440486358
225.01069523620868	0.00013338339233928684
226.0107427705918	3.903729456990759e-05
227.010790304975	-8.952762201964918e-05
228.01083783935812	-0.00021809253860920254
229.01088537374127	-0.00018181161501191638
230.01093290812443	-9.974320770317084e-05
231.01098044250756	-1.7674800394427484e-05
232.01102797689072	-1.548195436596025e-05
233.01107551127387	-3.5849673599721745e-05
234.01112304565703	-5.621739283348271e-05
235.01117058004016	-6.031190057622457e-05
236.01121811442334	-5.973326414527807e-05
237.01126564880647	-5.915462771433157e-05
238.0113131831896	-1.7906609171557003e-05
239.01136071757279	3.5213790788523534e-05
240.01140825195588	8.833419074860127e-05
241.01145578633907	6.317125057510927e-05
242.01150332072223	1.4780391225294598e-05
243.01155085510536	-3.3610468124517515e-05
244.0115983894885	6.35419661851403e-06
245.01164592387167	7.296188247266337e-05
246.0116934582548	0.0001395695683268092
247.01174099263795	0.00013480324784765572
248.01178852702114	0.00010816744719962093
249.01183606140424	8.153164655158755e-05
250.01188359578742	8.099442953381333e-05
251.01193113017058	8.858187667000226e-05
252.01197866455368	9.616932380619076e-05
253.01202619893687	3.7244350806875104e-05
254.01207373332002	-4.271474409436629e-05
255.01212126770315	-0.00012267383899560344
256.0121688020863	-0.00010209140634888723
257.01221633646946	-4.921326092274237e-05
258.0122638708526	3.66488450339967e-06
259.0123114052358	-3.048962566185193e-05
260.01235893961893	-9.30367562707803e-05
261.01240647400203	-0.00015558388687970538
262.0124540083852	-0.00012661619622327306
263.0125015427684	-6.733151773083246e-05
264.0125490771515	-8.046839238394998e-06
265.01259661153466	4.486967877412388e-05
266.0126441459178	9.564415025796553e-05
267.0126916803009	0.0001464186217418045
268.01273921468413	0.0001128458365669308
269.0127867490673	5.046881208124969e-05
270.0128342834504	-1.1908212404428125e-05
271.01288181783355	-4.1336477915080227e-07
272.0129293522167	3.6690131617498024e-05
273.01297688659986	7.379362801414491e-05
274.013024420983	5.9707759747800956e-05
275.0130719553662	2.7609879335022636e-05
276.0131194897493	-4.488001077753983e-06
277.0131670241325	3.6681135631875367e-06
278.01321455851564	2.6199645474638604e-05
279.01326209289874	4.873117738608848e-05
280.0133096272819	4.166499305032446e-05
281.01335716166506	2.3872411337669453e-05
282.0134046960482	6.079829625015395e-06
283.01345223043137	-2.4665522413443378e-05
284.01349976481447	-6.0174075714565595e-05
285.0135472991976	-9.56826290156897e-05
286.01359483358084	-7.056436789794306e-05
287.01364236796394	-2.282576836551193e-05
288.0136899023471	2.4912831166921738e-05
289.01373743673025	5.3724919455277034e-05
290.01378497111335	7.537290885360785e-05
291.01383250549657	9.702089825193979e-05
292.0138800398797	0.00011234111152222434
293.0139275742628	0.00012523159268735344
294.013975108646	0.00013812207385248323
295.01402264302914	7.758113984918113e-05
296.0140701774123	-1.1559799332733649e-05
297.01411771179545	-0.00010070073851465318
298.0141652461786	-9.749557696400847e-05
299.0142127805617	-5.781154846309281e-05
300.0142603149449	-1.812751996217504e-05
301.0143078493281	-2.1642691907045297e-05
302.0143553837112	-4.2463981524903045e-05
303.01440291809433	-6.328527114276192e-05
304.0144504524775	-5.869060951293316e-05
305.01449798686065	-4.377083005842685e-05
306.0145455212438	-2.885105060391976e-05
307.01459305562696	-1.0829184202138618e-05
308.01464059001006	8.470508339883403e-06
309.0146881243932	2.7770200881906453e-05
310.01473565877643	4.5565855563375634e-05
311.01478319315953	6.273334910942591e-05
312.0148307275427	7.99008426554771e-05
313.01487826192584	3.751513033514853e-05
314.014925796309	-3.0086694535161157e-05
315.01497333069216	-9.768851940547445e-05
316.0150208650753	-8.240334957199135e-05
317.0150683994584	-3.1539721775261884e-05
318.01511593384157	1.93239060214703e-05
319.0151634682248	3.943508107679991e-05
320.0152110026079	4.6165640652560295e-05
321.01525853699104	5.2896200228321035e-05
322.0153060713742	3.039275331537469e-05
323.01535360575735	-5.003543796915841e-06
324.0154011401405	-4.0399840909208244e-05
325.01544867452367	-4.3830897710216126e-05
326.01549620890677	-3.297392686856613e-05
327.0155437432899	-2.2116956026915554e-05
328.01559127767314	-3.12462596632491e-05
329.01563881205624	-4.942934606006104e-05
330.0156863464394	-6.761243245687396e-05
331.01573388082255	-6.540735199582832e-05
332.01578141520565	-5.384280142439084e-05
333.01582894958887	-4.227825085295273e-05
334.01587648397197	-1.94484149557626e-05
335.0159240183551	8.621789219554358e-06
336.0159715527383	3.6691993394871325e-05
337.01601908712144	2.9542826491136376e-05
338.0160666215046	5.793199768220452e-06
339.01611415588775	-1.7956426954695464e-05
340.01616169027085	-5.919397952790695e-05
341.016209224654	-0.0001087831151027324
342.0162567590372	-0.0001583722506775579
343.0163042934203	-9.13628071124178e-05
344.0163518278035	3.206097205519756e-05
345.01639936218663	0.0001554847512228129
346.01644689656973	0.0001371382059001273
347.01649443095295	4.9301761936756684e-05
348.0165419653361	-3.853468202661394e-05
349.0165894997192	-3.4810037099668254e-05
350.01663703410236	1.4378066141741737e-05
351.0166845684856	6.356616938315175e-05
352.0167321028687	7.848429222349997e-05
353.01677963725183	7.616563136738157e-05
354.016827171635	7.384697051126313e-05
355.0168747060181	4.23523072335203e-05
356.0169222404013	-4.006343053308464e-06
357.01696977478446	-5.036499334013721e-05
358.01701730916756	-5.727069083101034e-05
359.0170648435507	-4.3818482417902087e-05
360.01711237793387	-3.0366274004793827e-05
361.017159912317	1.1531398790095324e-05
362.0172074467002	6.82948677463006e-05
363.01725498108334	0.00012505833670250588
364.01730251546644	0.00013476983244940655
365.01735004984965	0.00011957827371764672
366.0173975842328	0.00010438671498588686
367.0174451186159	6.179444865414241e-05
368.01749265299907	4.5157998721523435e-06
369.0175401873822	-5.276284890983774e-05
370.0175877217654	-4.9004408096576206e-05
371.01763525614854	-1.2117270411654836e-05
372.0176827905317	2.476986727326654e-05
373.0177303249148	2.9670000006052053e-05
374.01777785929795	1.6990032631428103e-05
375.01782539368116	4.310065256804154e-06
376.01787292806426	-2.3205622089957986e-05
377.0179204624474	-5.897738976303514e-05
378.0179679968306	-9.474915743611231e-05
379.01801553121373	-0.00010163770280120756
380.0180630655969	-9.225168824400163e-05
381.01811059998005	-8.286567368679571e-05
382.01815813436315	-7.400532428528305e-05
383.0182056687463	-6.544485830597369e-05
384.0182532031295	-5.6884392326664346e-05
385.0183007375126	-3.624449388496983e-07
386.0183482718958	8.386062382906047e-05
387.0183958062789	0.0001680836925969662
388.01844334066203	0.00017309860471310782
389.01849087504525	0.00013179885517689062
390.01853840942834	9.049910564067558e-05
391.0185859438115	3.424480040857976e-05
392.01863347819466	-3.0861654651121386e-05
393.0186810125778	-9.596810971081908e-05
394.018728546961	-0.0001330410197310431
395.01877608134413	-0.00015331571147661255
396.01882361572723	-0.0001735904032221809
397.0188711501104	-0.00015002620143057932
398.0189186844936	-9.987076387314772e-05
399.0189662188767	-4.971532631571876e-05
400.01901375325986	-2.492356799331519e-05
401.019061287643	-1.5704698034487092e-05
402.01910882202617	-6.485828075659485e-06
403.0191563564093	1.3899303707302551e-05
404.0192038907925	4.1223923184158305e-05
405.0192514251756	6.854854266101261e-05
406.01929895955874	8.702945483580226e-05
407.01934649394195	9.994745996982625e-05
408.01939402832505	0.00011286546510384956
409.0194415627082	0.00012605819305315676
410.01948909709137	0.00013942582333784483
411.01953663147447	0.00015279345362253217
412.0195841658577	0.0001186320650530315
413.01963170024084	5.384545746815213e-05
414.01967923462394	-1.0941150116723808e-05
415.0197267690071	-5.3368436966753086e-05
416.01977430339025	-8.121480468751339e-05
417.0198218377734	-0.00010906117240827223
418.01986937215656	-0.00010874038570616321
419.0199169065397	-8.98303388952843e-05
420.0199644409228	-7.092029208440638e-05
421.02001197530603	-9.445029479685047e-06
422.0200595096892	8.045874424124107e-05
423.0201070440723	0.00017036251796216244
424.02015457845545	0.00016689869983384112
425.0202021128386	0.00010032994948298984
426.02024964722176	3.3761199132142095e-05
427.0202971816049	3.6846072342800236e-06
428.0203447159881	-1.4332419448813568e-06
429.0203922503712	-6.551091124042465e-06
430.0204397847544	2.487670021286541e-06
431.02048731913754	2.1324195114375504e-05
432.02053485352064	4.0160720207463466e-05
433.0205823879038	3.264030828025342e-05
434.02062992228696	6.661408946559879e-06
435.0206774566701	-1.931749038713228e-05
436.02072499105327	5.858338235500238e-06
437.02077252543637	6.728431239346403e-05
438.0208200598195	0.00012871028655143105
439.0208675942027	0.0001055014947000897
440.02091512858584	2.1607152673612395e-05
441.020962662969	-6.228718935286937e-05
442.02101019735215	-7.093723407457864e-05
443.02105773173525	-2.4997327396974374e-05
444.02110526611847	2.0942579280632313e-05
445.0211528005016	2.0442934604982895e-05
446.0212003348847	-1.4146178872754036e-05
447.0212478692679	-4.87352923504928e-05
448.02129540365104	-6.67653312517032e-05
449.0213429380342	-7.249686752122371e-05
450.02139047241735	-7.822840379074453e-05
451.0214380068005	-8.024052804340316e-05
452.0214855411836	-7.94577562943835e-05
453.02153307556677	-7.867498454536381e-05
454.02158060995	-5.710791108033141e-05
455.0216281443331	-1.9739509781142177e-05
456.02167567871624	1.7628891518049022e-05
457.0217232130994	2.9776084772769378e-05
458.02177074748255	2.252412476002156e-05
459.0218182818657	1.527216474727336e-05
460.02186581624886	1.888769752662125e-05
461.02191335063196	3.095986008194563e-05
462.0219608850151	4.303202263727065e-05
463.02200841939833	2.3560874113875837e-05
464.02205595378143	-2.0742690971287093e-05
465.0221034881646	-6.504625605645238e-05
466.02215102254775	-6.894191774042686e-05
467.0221985569309	-4.065544765789302e-05
468.02224609131406	-1.2368977575357699e-05
469.0222936256972	-1.0053667739685375e-05
470.0223411600803	-2.8663577193079993e-05
471.0223886944635	-4.72734866464756e-05
472.0224362288467	-4.191560668089811e-05
473.0224837632298	-1.7021955530441472e-05
474.02253129761294	7.871695620016487e-06
475.0225788319961	2.456448277806325e-05
476.0226263663792	3.449519173899668e-05
477.0226739007624	4.442590069993063e-05
478.02272143514557	2.014256592989366e-05
479.0227689695287	-3.2679681090141686e-05
480.02281650391177	-8.550192811017142e-05
481.022864038295	-5.727004854950938e-05
