#easy_tsv
#k: 0.03 
#R: 3400.0 
#displacement [nm] 	 #force [nN] 
0.0	-0.000103674300959543
1.0000475343831496	-8.117562002452209e-05
2.0000950687662993	-5.8676939089501154e-05
3.0001426031494494	-3.617825815448022e-05
4.0001901375325986	-1.1539542622696056e-05
5.000237671915748	1.3105311530852485e-05
6.000285206298899	3.775016568440104e-05
7.0003327406820475	1.2795622177577739e-05
8.000380275065197	-1.2444288512599645e-05
9.000427809448347	-3.7684199202777036e-05
10.000475343831496	-6.768891090627907e-05
11.000522878214646	-9.773486224336839e-05
12.000570412597797	-0.00012778081358045775
13.000617946980945	-0.0001498207034763674
14.000665481364095	-0.00017176793547426595
15.000713015747243	-0.00019371516747216443
16.000760550130394	-0.00016550393201361554
17.000808084513544	-0.00013656495664727113
18.000855618896693	-0.00010762598128092677
19.000903153279843	-6.469128374519872e-05
20.000950687662993	-2.151220346194035e-05
21.000998222046142	2.1666876821318167e-05
22.001045756429292	1.7648083632228402e-05
23.00109329081244	1.2664994850961849e-05
24.001140825195595	7.681906069695295e-06
25.00118835957874	1.5308463243408656e-05
26.00123589396189	2.323031264693936e-05
27.00128342834504	3.115216205047004e-05
28.00133096272819	1.8457345914097316e-05
29.00137849711134	5.2177848122451786e-06
30.001426031494486	-8.021776289606959e-06
31.001473565877642	2.5884651042483346e-05
32.00152110026079	6.117928441471624e-05
33.00156863464394	9.647391778694912e-05
34.00161616902709	4.1146258786244924e-05
35.00166370341024	-1.7125263063390942e-05
36.00171123779339	-7.53967849130268e-05
37.00175877217654	-0.00012705278410723013
38.001806306559686	-0.00017847364699168417
39.001853840942836	-0.00022989450987613788
40.001901375325986	-0.00019563448773456322
41.00194890970914	-0.0001580655183399084
42.001996444092285	-0.00012049654894525382
43.002043978475434	-6.01716776961742e-05
44.002091512858584	1.1024350721797e-06
45.002139047241734	6.2376547840534e-05
46.00218658162488	3.902696207891312e-06
47.00223411600803	-5.993912421638767e-05
48.00228165039119	-0.00012378094464066708
49.00232918477433	-9.906332726120136e-05
50.00237671915748	-7.009848514804947e-05
51.00242425354063	-4.113364303489755e-05
52.00247178792378	1.1844340450854446e-05
53.00251932230693	6.60496276076955e-05
54.00256685669008	0.00012025491476453656
55.00261439107323	4.061664089171915e-05
56.00266192545638	-4.6286568666989756e-05
57.00270945983953	-0.00013318977822569808
58.00275699422268	-0.00016060991494309997
59.002804528605836	-0.00018461167130855976
60.00285206298897	-0.00020861342767401926
61.00289959737213	-0.00013591068634814254
62.002947131755285	-5.734027570871616e-05
63.00299466613842	2.123013493070914e-05
64.00304220052158	-2.7855319615407552e-05
65.00308973490473	-8.509849051303403e-05
66.00313726928788	-0.00014234166141065976
67.00318480367103	-0.00011075242406645105
68.00323233805418	-7.319796978521442e-05
69.00327987243732	-3.5643515503978294e-05
70.00332740682047	-2.669871279015897e-05
71.00337494120362	-1.9768562679884865e-05
72.00342247558677	-1.2838412569610665e-05
73.00347000996993	-1.8116934466733012e-07
74.00351754435307	1.2898194882865883e-05
75.00356507873623	2.597755911039927e-05
76.00361261311937	1.945160130357626e-05
77.00366014750252	1.1415767536486286e-05
78.00370768188567	3.379933769396204e-06
79.00375521626883	-1.5588311389868325e-05
80.00380275065197	-3.5434884135534357e-05
81.00385028503513	-5.528145688120065e-05
82.00389781941828	-1.2286177855587738e-05
83.00394535380141	3.596835366910984e-05
84.00399288818457	8.422288519380805e-05
85.00404042256771	4.298002939056636e-05
86.00408795695087	-6.054449211634452e-06
87.00413549133403	-5.5088927813835274e-05
88.00418302571717	-3.7592272396445246e-05
89.00423056010032	-1.4077856457260746e-05
90.00427809448347	9.43655948192375e-06
91.00432562886661	4.382198761460779e-05
92.00437316324977	7.922779092526493e-05
93.00442069763292	0.00011463359423592205
94.00446823201607	9.97487376422753e-05
95.00451576639922	7.99708429433127e-05
96.00456330078238	6.019294824435009e-05
97.00461083516551	8.39478183167208e-05
98.00465836954866	0.00011208861134212636
99.00470590393181	0.00014022940436753155
100.00475343831496	8.229678534585362e-05
101.00480097269812	1.539303459072802e-05
102.00484850708126	-5.1510716164396666e-05
103.00489604146442	1.9023141039990187e-05
104.00494357584756	0.00010436248251088518
105.0049911102307	0.000189701823981779
106.00503864461386	0.00015811967612204753
107.00508617899702	0.00011353048177537008
108.00513371338016	6.894128742869322e-05
109.00518124776332	4.565039924416747e-05
110.00522878214646	2.4804328643435787e-05
111.00527631652962	3.958258042703831e-06
112.00532385091276	2.8229675710006378e-05
113.0053713852959	5.7840986101203e-05
114.00541891967906	8.745229649240002e-05
115.00546645406222	0.00010444767617852299
116.00551398844536	0.00011990461704588757
117.00556152282851	0.00013536155791325235
118.00560905721167	6.760847205695061e-05
119.0056565915948	-1.0592141304148586e-05
120.00570412597794	-8.879275466524777e-05
121.00575166036111	-6.02612857160154e-05
122.00579919474426	-1.794094775125758e-05
123.0058467291274	2.4379390213500257e-05
124.00589426351057	3.446947598878454e-05
125.00594179789371	4.0277763706312024e-05
126.00598933227684	4.6086051423839496e-05
127.00603686666001	3.316796369565234e-05
128.00608440104315	1.769310901051154e-05
129.0061319354263	2.2182543253707364e-06
130.00617946980947	3.8934304551971516e-05
131.0062270041926	8.296958668945063e-05
132.00627453857575	0.0001270048688269297
133.0063220729589	5.563881362787279e-05
134.00636960734207	-3.234163385831701e-05
135.0064171417252	-0.0001203220813445068
136.00646467610835	-0.00012217358645813945
137.0065122104915	-0.00011130161082724084
138.00655974487464	-0.0001004296351963422
139.00660727925782	-3.392133416903294e-05
140.00665481364095	4.1016210864925776e-05
141.0067023480241	0.0001159537558988845
142.00674988240723	0.00010196429331176221
143.00679741679042	7.416346421440531e-05
144.00684495117355	4.636263511704913e-05
145.00689248555668	4.653915839676649e-05
146.00694001993986	5.116804364398064e-05
147.006987554323	5.579692889119467e-05
148.00703508870615	3.9113814437679735e-05
149.0070826230893	1.895689711293585e-05
150.00713015747246	-1.200020211807506e-06
151.0071776918556	-2.9377320179813503e-05
152.00722522623875	-5.8893054458378176e-05
153.0072727606219	-8.840878873694209e-05
154.00732029500503	-7.416104590373301e-05
155.00736782938822	-5.2439082971448855e-05
156.00741536377134	-3.071712003916526e-05
157.0074628981545	4.3052296934338575e-05
158.00751043253766	0.000125915474327891
159.00755796692079	0.00020877865172144126
160.00760550130394	0.0001876137875055678
161.0076530356871	0.00014786109474847605
162.00770057007026	0.00010810840199138536
163.00774810445338	2.444193020390811e-05
164.00779563883657	-6.724618892248806e-05
165.0078431732197	-0.00015893430804888177
166.00789070760283	-0.00013470797481514275
167.00793824198598	-8.884245821476102e-05
168.00798577636914	-4.297694161437807e-05
169.0080333107523	-2.3216661652235204e-05
170.00808084513542	-8.435275361433292e-06
171.0081283795186	6.34611092936901e-06
172.00817591390174	-1.6412389267103633e-05
173.00822344828487	-4.6483402259189346e-05
174.00827098266805	-7.655441525127584e-05
175.00831851705118	-6.875878480042005e-05
176.00836605143434	-5.343184750506691e-05
177.0084135858175	-3.8104910209713346e-05
178.00846112020065	-1.1306242208154496e-05
179.00850865458378	1.782136584973315e-05
180.00855618896693	4.694897390762156e-05
181.0086037233501	5.9684320179599515e-05
182.00865125773322	6.902369175251861e-05
183.0086987921164	7.836306332543793e-05
184.00874632649953	8.666251282805712e-05
185.0087938608827	9.4742172759567e-05
186.00884139526585	0.0001028218326910771
187.00888892964898	8.809724873474017e-05
188.00893646403213	6.845689915525193e-05
189.0089839984153	4.8816549575763175e-05
190.00903153279845	2.484159359925635e-05
191.00907906718157	-8.612918515367467e-08
192.00912660156476	-2.501385196956435e-05
193.0091741359479	-5.424265960121497e-05
194.00922167033102	-8.443523472358783e-05
195.00926920471417	-0.0001146278098459607
196.00931673909733	-9.70409324220615e-05
197.0093642734805	-6.854236483857435e-05
198.00941180786361	-4.00437972550872e-05
199.0094593422468	-1.1235644805533471e-05
200.00950687662993	1.7644550302287462e-05
201.00955441101308	4.6524745410108384e-05
202.00960194539624	3.808157225850629e-05
203.00964947977937	2.079018393974667e-05
204.00969701416253	3.498795620987045e-06
205.00974454854568	-1.0604735543761999e-05
206.00979208292884	-2.3938521106522432e-05
207.00983961731197	-3.727230666928287e-05
208.00988715169512	-5.920689243652461e-05
209.00993468607828	-8.325629273125677e-05
210.0099822204614	-0.00010730569302598895
211.0100297548446	-8.819740260319332e-05
212.01007728922772	-5.828495302657289e-05
213.01012482361088	-2.837250344995247e-05
214.01017235799404	-2.534135298821954e-05
215.0102198923772	-2.9160340056638554e-05
216.01026742676032	-3.297932712505757e-05
217.01031496114348	-4.849969165938174e-05
218.01036249552664	-6.705479782938253e-05
219.01041002990976	-8.560990399938331e-05
220.01045756429292	-8.99995455621392e-05
221.01050509867608	-9.065089612920907e-05
222.01055263305923	-9.130224669627891e-05
223.01060016744236	-8.034691010921754e-05
224.01064770182552	-6.627532361136921e-05
225.01069523620868	-5.220373711352124e-05
226.0107427705918	-2.716385267954057e-05
227.010790304975	8.715457943857965e-07
228.01083783935812	2.8906944268311425e-05
229.01088537374127	2.2556197678082605e-05
230.01093290812443	6.654375639178082e-06
231.01098044250756	-9.247446399726023e-06
232.01102797689072	-3.188971439115239e-05
233.01107551127387	-5.643579712104248e-05
234.01112304565703	-8.098187985093193e-05
235.01117058004016	-9.605957615630693e-05
236.01121811442334	-0.00010841825569732885
237.01126564880647	-0.00012077693523835044
238.0113131831896	-0.00011253610819331318
239.01136071757279	-9.828178434801707e-05
240.01140825195588	-8.402746050272169e-05
241.01145578633907	-5.176862276033453e-05
242.01150332072223	-1.4167557758647567e-05
243.01155085510536	2.3433507243037406e-05
244.0115983894885	-1.6070653991690186e-05
245.01164592387167	-7.882538378436761e-05
246.0116934582548	-0.0001415801135770417
247.01174099263795	-0.0001192469762945749
248.01178852702114	-7.084233879503231e-05
249.01183606140424	-2.2437701295492258e-05
250.01188359578742	-2.11704184483565e-05
251.01193113017058	-3.457731030290873e-05
252.01197866455368	-4.7984202157460246e-05
253.01202619893687	-9.417775918452852e-05
254.01207373332002	-0.00015073988663184818
255.01212126770315	-0.0002073020140791648
256.0121688020863	-0.00014180033950598025
257.01221633646946	-3.708961781603216e-05
258.0122638708526	6.762110387391036e-05
259.0123114052358	7.108567463871951e-05
260.01235893961893	4.152076336523886e-05
261.01240647400203	1.1955852091759791e-05
262.0124540083852	-1.0258229106489304e-05
263.0125015427684	-3.0037130703292655e-05
264.0125490771515	-4.9816032300094964e-05
265.01259661153466	-5.583058994335779e-05
266.0126441459178	-5.721526030941374e-05
267.0126916803009	-5.859993067546963e-05
268.01273921468413	-2.783003085760319e-05
269.0127867490673	1.3920521695199051e-05
270.0128342834504	5.567107424799906e-05
271.01288181783355	7.505609136590248e-05
272.0129293522167	8.668780367144518e-05
273.01297688659986	9.831951597698728e-05
274.013024420983	0.00014157641051933503
275.0130719553662	0.00019596126436207133
276.0131194897493	0.0002503461182048048
277.0131670241325	0.00018773360481915378
278.01321455851564	8.333925161326645e-05
279.01326209289874	-2.1055101592615364e-05
280.0133096272819	-1.549605955591996e-05
281.01335716166506	2.9910780211496216e-05
282.0134046960482	7.531761997890998e-05
283.01345223043137	4.8995948612305685e-05
284.01349976481447	-3.702885801959837e-06
285.0135472991976	-5.640172021622813e-05
286.01359483358084	-6.196825845770341e-05
287.01364236796394	-4.9949368536587504e-05
288.0136899023471	-3.793047861547096e-05
289.01373743673025	-1.8498091505076826e-05
290.01378497111335	3.7404666053471987e-06
291.01383250549657	2.5979024715772394e-05
292.0138800398797	1.46924610675635e-05
293.0139275742628	-9.467039773400228e-06
294.013975108646	-3.362654061436523e-05
295.01402264302914	-4.87655680810979e-05
296.0140701774123	-6.039130924352985e-05
297.01411771179545	-7.201705040596242e-05
298.0141652461786	-4.4948383464130455e-05
299.0142127805617	-2.5945214381808093e-06
300.0142603149449	3.975934058777109e-05
301.0143078493281	-8.992442629249338e-07
302.0143553837112	-7.481361068237189e-05
303.01440291809433	-0.00014872797710182274
304.0144504524775	-0.00016864446455416526
305.01449798686065	-0.00016662455241301085
306.0145455212438	-0.00016460464027185637
307.01459305562696	-6.732715479864425e-05
308.01464059001006	6.918927507831995e-05
309.0146881243932	0.00020570570495529134
310.01473565877643	0.00019383001796265765
311.01478319315953	0.00011997839069312352
312.0148307275427	4.61267634235855e-05
313.01487826192584	1.99910590179679e-05
314.014925796309	1.4059306084965944e-05
315.01497333069216	8.127553151963674e-06
316.0150208650753	1.0948645268491025e-05
317.0150683994584	1.752681327812264e-05
318.01511593384157	2.4104981287754604e-05
319.0151634682248	2.6228416189040574e-05
320.0152110026079	2.6413564369325178e-05
321.01525853699104	2.6598712549609792e-05
322.0153060713742	-1.453077523319333e-05
323.01535360575735	-7.388094079816355e-05
324.0154011401405	-0.00013323110636313687
325.01544867452367	-9.706441513068659e-05
326.01549620890677	-1.820298808611365e-05
327.0155437432899	6.065843895846346e-05
328.01559127767314	8.412230371698887e-05
329.01563881205624	8.249107159037314e-05
330.0156863464394	8.08598394637573e-05
331.01573388082255	8.133751667667174e-05
332.01578141520565	8.278331790320983e-05
333.01582894958887	8.422911912974801e-05
334.01587648397197	4.047515067524163e-05
335.0159240183551	-2.4304777829622434e-05
336.0159715527383	-8.90847063344865e-05
337.01601908712144	-6.965963206679743e-05
338.0160666215046	-1.0544985774603377e-05
339.01611415588775	4.856966051759067e-05
340.01616169027085	5.680030303606361e-05
341.016209224654	4.0730637753121944e-05
342.0162567590372	2.466097247018029e-05
343.0163042934203	2.020616406801869e-05
344.0163518278035	2.1371016204433492e-05
345.01639936218663	2.2535868340848292e-05
346.01644689656973	-1.252613020666993e-05
347.01649443095295	-6.534501963490487e-05
348.0165419653361	-0.00011816390906313981
349.0165894997192	-9.551592688616852e-05
350.01663703410236	-3.539585899103214e-05
351.0166845684856	2.472420890410424e-05
352.0167321028687	4.4840197168207126e-05
353.01677963725183	4.483531989615754e-05
354.016827171635	4.483044262410795e-05
355.0168747060181	4.0160875365201564e-05
356.0169222404013	3.311483821285075e-05
357.01696977478446	2.6068801060499944e-05
358.01701730916756	1.6459214184701916e-05
359.0170648435507	5.526823808743631e-06
360.01711237793387	-5.405566567214659e-06
361.017159912317	8.857839447235892e-06
362.0172074467002	3.6288742684958694e-05
363.01725498108334	6.371964592268149e-05
364.01730251546644	7.525442954385237e-05
365.01735004984965	7.837592237593508e-05
366.0173975842328	8.149741520801778e-05
367.0174451186159	5.9187299530705266e-05
368.01749265299907	2.324620999875879e-05
369.0175401873822	-1.2694879533187684e-05
370.0175877217654	-4.8172384511937175e-05
371.01763525614854	-8.339827277306607e-05
372.0176827905317	-0.00011862416103419499
373.0177303249148	-0.00010530240202322748
374.01777785929795	-6.529879204497443e-05
375.01782539368116	-2.52951820667214e-05
376.01787292806426	-2.9824824750018437e-05
377.0179204624474	-5.913722902872418e-05
378.0179679968306	-8.844963330742994e-05
379.01801553121373	-7.401857037150672e-05
380.0180630655969	-3.493978389550538e-05
381.01811059998005	4.1390025804959676e-06
382.01815813436315	2.9838392170608424e-05
383.0182056687463	4.790505343222138e-05
384.0182532031295	6.597171469383432e-05
385.0183007375126	3.539490345324451e-05
386.0183482718958	-2.3276926885187335e-05
387.0183958062789	-8.194875722361608e-05
388.01844334066203	-7.180777624849945e-05
389.01849087504525	-2.1430508910273185e-05
390.01853840942834	2.8946758427950397e-05
391.0185859438115	7.315362154333142e-07
392.01863347819466	-7.400546216856983e-05
393.0186810125778	-0.00014874246055256903
394.018728546961	-0.00017500121403690177
395.01877608134413	-0.00017221090725254388
396.01882361572723	-0.00016942060046818615
397.0188711501104	-0.00015282032292977457
398.0189186844936	-0.00012784336982748522
399.0189662188767	-0.00010286641672519717
400.01901375325986	-5.2055116299840054e-05
401.019061287643	1.4618055074127665e-05
402.01910882202617	8.129122644809186e-05
403.0191563564093	5.687016493130595e-05
404.0192038907925	-2.4163155735968086e-05
405.0192514251756	-0.00010519647640323782
406.01929895955874	-8.11222731856818e-05
407.01934649394195	9.06711958815528e-06
408.01939402832505	9.92565123619876e-05
409.0194415627082	0.00011132326705039837
410.01948909709137	7.365322855267694e-05
411.01953663147447	3.5983190054957514e-05
412.0195841658577	3.0493258096006932e-05
413.01963170024084	4.573850717901096e-05
414.01967923462394	6.0983756262014196e-05
415.0197267690071	6.587670952629993e-05
416.01977430339025	6.401874267431706e-05
417.0198218377734	6.21607758223343e-05
418.01986937215656	3.051139622910955e-05
419.0199169065397	-2.079919273374282e-05
420.0199644409228	-7.210978169659248e-05
421.02001197530603	-5.350595338896754e-05
422.0200595096892	1.1792405922169167e-05
423.0201070440723	7.709076523330242e-05
424.02015457845545	7.83970374432286e-05
425.0202021128386	3.645258165087019e-05
426.02024964722176	-5.491874141486003e-06
427.0202971816049	-2.579775306301488e-05
428.0203447159881	-3.1303968281077004e-05
429.0203922503712	-3.681018349913884e-05
430.0204397847544	-3.6685757440633826e-05
431.02048731913754	-3.266437491883755e-05
432.02053485352064	-2.864299239704149e-05
433.0205823879038	-4.402435091614564e-05
434.02062992228696	-7.299398226372345e-05
435.0206774566701	-0.00010196361361129975
436.02072499105327	-0.00010754737021290993
437.02077252543637	-9.655902494084441e-05
438.0208200598195	-8.557067966877833e-05
439.0208675942027	-4.964283381414951e-05
440.02091512858584	4.1673479327928064e-06
441.020962662969	5.797752967973796e-05
442.02101019735215	7.451370686500586e-05
443.02105773173525	6.40074878772053e-05
444.02110526611847	5.35012688894042e-05
445.0211528005016	3.92393103438956e-05
446.0212003348847	2.2220409434596847e-05
447.0212478692679	5.201508525297194e-06
448.02129540365104	1.676856179480585e-05
449.0213429380342	4.956653778723811e-05
450.02139047241735	8.23645137796721e-05
451.0214380068005	7.289975521957185e-05
452.0214855411836	3.167730289353296e-05
453.02153307556677	-9.545149432508103e-06
454.02158060995	-4.612433291437338e-05
455.0216281443331	-7.917345730493572e-05
456.02167567871624	-0.0001122225816954998
457.0217232130994	-0.00012243116376886348
458.02177074748255	-0.00011507170626449568
459.0218182818657	-0.00010771224876012752
460.02186581624886	-0.00011516082458304971
461.02191335063196	-0.00013413239452751306
462.0219608850151	-0.0001531039644719774
463.02200841939833	-0.00014396869040850499
464.02205595378143	-0.00011270635248354069
465.0221034881646	-8.144401455857475e-05
466.02215102254775	-4.061951983763496e-05
467.0221985569309	7.820578863660957e-06
468.02224609131406	5.626067756495943e-05
469.0222936256972	0.00010183888039567614
470.0223411600803	0.00014511122557100785
471.0223886944635	0.00018838357074634185
472.0224362288467	0.00017044332310846012
473.0224837632298	0.00010260964617144069
474.02253129761294	3.477596923441767e-05
475.0225788319961	9.225885523570491e-07
476.0226263663792	-4.912107677706086e-06
477.0226739007624	-1.074680390776953e-05
478.02272143514557	-1.0329604335237862e-05
479.0227689695287	-4.6975196965225336e-06
480.02281650391177	9.345649421921993e-07
481.022864038295	-7.830005164420206e-07
