#easy_tsv
#k: 0.03 
#R: 3400.0 
#displacement [nm] 	 #force [nN] 
0.0	9.881350020899379e-05
1.0000475343831496	5.165832985309718e-05
2.0000950687662993	4.503159497200574e-06
3.0001426031494494	-4.265201085869604e-05
4.0001901375325986	-2.7255486748427475e-06
5.000237671915748	3.745070442622029e-05
6.000285206298899	7.762695752728337e-05
7.0003327406820475	6.763433180598629e-05
8.000380275065197	5.7353062425352835e-05
9.000427809448347	4.707179304471938e-05
10.000475343831496	2.3014149064956376e-05
11.000522878214646	-1.1627302488825223e-06
12.000570412597797	-2.5339609562721465e-05
13.000617946980945	-6.0853186594125915e-06
14.000665481364095	1.3671621514083795e-05
15.000713015747243	3.342856168758015e-05
16.000760550130394	1.6197345672612537e-05
17.000808084513544	-1.5705246449908643e-06
18.000855618896693	-1.9338394962594206e-05
19.000903153279843	1.0401653092427368e-05
20.000950687662993	4.097124859636522e-05
21.000998222046142	7.154084410030316e-05
22.001045756429292	6.630225794490311e-05
23.00109329081244	6.033207798669762e-05
24.001140825195595	5.436189802849213e-05
25.00118835957874	3.2738298842042865e-05
26.00123589396189	1.0748128454096163e-05
27.00128342834504	-1.1242041933850476e-05
28.00133096272819	-5.240029047366995e-05
29.00137849711134	-9.40650085999964e-05
30.001426031494486	-0.00013572972672632282
31.001473565877642	-4.480475441869816e-05
32.00152110026079	5.002429998021492e-05
33.00156863464394	0.00014485335437912798
34.00161616902709	0.00012950207968839408
35.00166370341024	0.00011057159982642817
36.00171123779339	9.164111996446229e-05
37.00175877217654	9.610386897667741e-05
38.001806306559686	0.00010139808630925069
39.001853840942836	0.0001066923036418239
40.001901375325986	5.9528228532954926e-05
41.00194890970914	1.0338243880520059e-05
42.001996444092285	-3.885174077191446e-05
43.002043978475434	2.1253873601868256e-05
44.002091512858584	8.591865337956856e-05
45.002139047241734	0.00015058343315726933
46.00218658162488	9.466841299293523e-05
47.00223411600803	3.3348135159058634e-05
48.00228165039119	-2.7972142674818336e-05
49.00232918477433	-2.4669528724962006e-05
50.00237671915748	-1.826766356989314e-05
51.00242425354063	-1.1865798414824271e-05
52.00247178792378	-4.206915343807994e-05
53.00251932230693	-7.414338909326959e-05
54.00256685669008	-0.00010621762474845924
55.00261439107323	-4.026762407408368e-05
56.00266192545638	3.100306417849462e-05
57.00270945983953	0.00010227375243107247
58.00275699422268	0.00012960736364474857
59.002804528605836	0.00015441599365457467
60.00285206298897	0.0001792246236644004
61.00289959737213	0.00014554365468590026
62.002947131755285	0.00010831375434082554
63.00299466613842	7.108385399575132e-05
64.00304220052158	5.0950086543598756e-05
65.00308973490473	3.190882982446632e-05
66.00313726928788	1.2867573105334124e-05
67.00318480367103	-1.2303246203792434e-05
68.00323233805418	-3.7885673970936535e-05
69.00327987243732	-6.346810173808029e-05
70.00332740682047	-5.090321392153986e-05
71.00337494120362	-3.565204422289331e-05
72.00342247558677	-2.040087452424656e-05
73.00347000996993	-1.1546042824071494e-05
74.00351754435307	-3.1626594755749828e-06
75.00356507873623	5.2207238729216405e-06
76.00361261311937	3.973787549190648e-06
77.00366014750252	1.9851858686089964e-06
78.00370768188567	-3.4158119726827025e-09
79.00375521626883	-1.5604622634819955e-05
80.00380275065197	-3.2299488138294864e-05
81.00385028503513	-4.899435364177e-05
82.00389781941828	-6.413525338990237e-05
83.00394535380141	-7.91461013007331e-05
84.00399288818457	-9.415694921156406e-05
85.00404042256771	-0.00010712831437369394
86.00408795695087	-0.00011992212261760213
87.00413549133403	-0.0001327159308615103
88.00418302571717	-0.00014488011975851214
89.00423056010032	-0.00015698735940152347
90.00427809448347	-0.0001690945990445348
91.00432562886661	-9.15829234106956e-05
92.00437316324977	-5.659435242967296e-06
93.00442069763292	8.0264052924761e-05
94.00446823201607	-1.220042729359461e-06
95.00451576639922	-9.899208704666866e-05
96.00456330078238	-0.00019676413136397787
97.00461083516551	-0.00012982203932623268
98.00465836954866	-4.6285009771340524e-05
99.00470590393181	3.7252019783550485e-05
100.00475343831496	1.94371735362205e-05
101.00480097269812	-8.941225469496598e-06
102.00484850708126	-3.731962447521332e-05
103.00489604146442	-3.08933600007214e-05
104.00494357584756	-2.071775860740633e-05
105.0049911102307	-1.0542157214091385e-05
106.00503864461386	-2.4894537666440337e-05
107.00508617899702	-4.1975557669345805e-05
108.00513371338016	-5.9056577672251036e-05
109.00518124776332	-1.1105352341350646e-05
110.00522878214646	4.431087868977783e-05
111.00527631652962	9.972710972090705e-05
112.00532385091276	8.069824813828105e-05
113.0053713852959	5.28584171591279e-05
114.00541891967906	2.501858617997438e-05
115.00546645406222	-1.9127866834966055e-06
116.00551398844536	-2.8733378403423068e-05
117.00556152282851	-5.555397012334989e-05
118.00560905721167	-3.806078809200885e-05
119.0056565915948	-1.500374088315446e-05
120.00570412597794	8.05330632569993e-06
121.00575166036111	2.429703809766216e-05
122.00579919474426	3.9660547989874475e-05
123.0058467291274	5.50240578820868e-05
124.00589426351057	3.197841530717241e-05
125.00594179789371	3.8301060367889835e-06
126.00598933227684	-2.4318203233594453e-05
127.00603686666001	-5.35926116144877e-05
128.00608440104315	-8.302076960935921e-05
129.0061319354263	-0.00011244892760423071
130.00617946980947	-7.946041150728025e-05
131.0062270041926	-3.771860566461021e-05
132.00627453857575	4.023200178059837e-06
133.0063220729589	1.7947247974721777e-05
134.00636960734207	2.7866358260328478e-05
135.0064171417252	3.7785468545935176e-05
136.00646467610835	5.9518353541999314e-05
137.0065122104915	8.299643975507703e-05
138.00655974487464	0.00010647452596815474
139.00660727925782	7.030936911380303e-05
140.00665481364095	2.5107895687836778e-05
141.0067023480241	-2.0093577738129488e-05
142.00674988240723	-4.672119398787464e-05
143.00679741679042	-7.046408088675093e-05
144.00684495117355	-9.42069677856266e-05
145.00689248555668	-4.960798049164714e-05
146.00694001993986	5.867045297422384e-06
147.006987554323	6.134207108649044e-05
148.00703508870615	5.619894333679106e-05
149.0070826230893	4.11752075367668e-05
150.00713015747246	2.6151471736742938e-05
151.0071776918556	5.849053880288886e-06
152.00722522623875	-1.5334265735234228e-05
153.0072727606219	-3.651758535075678e-05
154.00732029500503	-4.5036329244235466e-05
155.00736782938822	-5.139213196724485e-05
156.00741536377134	-5.774793469025408e-05
157.0074628981545	-2.8492046679054306e-05
158.00751043253766	6.9859359505153896e-06
159.00755796692079	4.246391858008414e-05
160.00760550130394	5.0449767707507846e-05
161.0076530356871	5.3523296504142706e-05
162.00770057007026	5.659682530077749e-05
163.00774810445338	1.304620237687198e-06
164.00779563883657	-6.46491435442708e-05
165.0078431732197	-0.00013060290732622704
166.00789070760283	-0.00013868567723883458
167.00793824198598	-0.00013596495351927623
168.00798577636914	-0.0001332442297997178
169.0080333107523	-7.473738424472823e-05
170.00808084513542	-5.590789554186582e-06
171.0081283795186	6.355580513635689e-05
172.00817591390174	7.045811472962587e-05
173.00822344828487	6.52356638662567e-05
174.00827098266805	6.0013213002887365e-05
175.00831851705118	1.2888727028200135e-05
176.00836605143434	-4.256966591946079e-05
177.0084135858175	-9.802805886712318e-05
178.00846112020065	-4.723914536782704e-05
179.00850865458378	2.5119626612151785e-05
180.00855618896693	9.747839859213254e-05
181.0086037233501	6.532253017332199e-05
182.00865125773322	1.1514428578207911e-05
183.0086987921164	-4.229367301690759e-05
184.00874632649953	-4.562757998797381e-05
185.0087938608827	-3.8293666835452566e-05
186.00884139526585	-3.095975368293113e-05
187.00888892964898	2.7622966575103414e-06
188.00893646403213	4.2172669675315834e-05
189.0089839984153	8.158304269312236e-05
190.00903153279845	1.597369844723767e-05
191.00907906718157	-7.271947201480462e-05
192.00912660156476	-0.00016141264247684927
193.0091741359479	-0.00013046878687744662
194.00922167033102	-7.271721171429594e-05
195.00926920471417	-1.4965636551145246e-05
196.00931673909733	-1.1106836036716444e-05
197.0093642734805	-1.9555862997662737e-05
198.00941180786361	-2.8004889958609033e-05
199.0094593422468	-2.2486252559695523e-05
200.00950687662993	-1.3717237701875276e-05
201.00955441101308	-4.948222844055034e-06
202.00960194539624	-2.482332441878467e-05
203.00964947977937	-5.1489059242546146e-05
204.00969701416253	-7.815479406630762e-05
205.00974454854568	-7.525113835001692e-05
206.00979208292884	-6.520760552441482e-05
207.00983961731197	-5.5164072698812725e-05
208.00988715169512	-0.00010613861715615224
209.00993468607828	-0.00017211663957014667
210.0099822204614	-0.00023809466198414112
211.0100297548446	-0.00019540722915499477
212.01007728922772	-0.00012551632798798136
213.01012482361088	-5.5625426820967936e-05
214.01017235799404	-1.4658483862332004e-05
215.0102198923772	1.8937792567242588e-05
216.01026742676032	5.2534068996817187e-05
217.01031496114348	3.098510663108428e-05
218.01036249552664	-4.865723413824758e-06
219.01041002990976	-4.07165534587338e-05
220.01045756429292	-0.00010640424740645641
221.01050509867608	-0.000179965942155422
222.01055263305923	-0.0002535276369043856
223.01060016744236	-0.00021787243149335464
224.01064770182552	-0.00015289385836676932
225.01069523620868	-8.79152852401857e-05
226.0107427705918	-9.708897054919644e-06
227.010790304975	7.211009410273369e-05
228.01083783935812	0.00015392908526038488
229.01088537374127	0.00023185474244002974
230.01093290812443	0.0003086989894615606
231.01098044250756	0.0003855432364830894
232.01102797689072	0.0003120472471085761
233.01107551127387	0.000196088198190098
234.01112304565703	8.012914927162303e-05
235.01117058004016	7.506304766387835e-05
236.01121811442334	0.00010184184224729264
237.01126564880647	0.00012862063683070622
238.0113131831896	6.140045055602808e-05
239.01136071757279	-3.3260323591774094e-05
240.01140825195588	-0.00012792109773957124
241.01145578633907	-0.00012731688770916788
242.01150332072223	-9.844603308938743e-05
243.01155085510536	-6.957517846960853e-05
244.0115983894885	-1.9776651221077628e-05
245.01164592387167	3.633247663085692e-05
246.0116934582548	9.24416044827885e-05
247.01174099263795	6.100476625687181e-05
248.01178852702114	2.7432495889970863e-06
249.01183606140424	-5.551826707887456e-05
250.01188359578742	-9.257830062278892e-06
251.01193113017058	6.954099227181665e-05
252.01197866455368	0.00014833981460590806
253.01202619893687	0.0001728901013784594
254.01207373332002	0.00018028464028199936
255.01212126770315	0.00018767917918553894
256.0121688020863	0.00010286608224593573
257.01221633646946	-1.1565734399709908e-05
258.0122638708526	-0.00012599755104534947
259.0123114052358	-7.035475450485418e-05
260.01235893961893	4.077139947758727e-05
261.01240647400203	0.00015189755346002283
262.0124540083852	0.00012579423684303795
263.0125015427684	5.422960441534933e-05
264.0125490771515	-1.733502801233548e-05
265.01259661153466	-4.866018531331593e-05
266.0126441459178	-6.645006374016548e-05
267.0126916803009	-8.423994216701406e-05
268.01273921468413	-0.00010788852496999955
269.0127867490673	-0.0001335378310873699
270.0128342834504	-0.0001591871372047389
271.01288181783355	-0.00013625916638484976
272.0129293522167	-9.649124839958495e-05
273.01297688659986	-5.6723330414322244e-05
274.013024420983	-1.5808168085606365e-05
275.0130719553662	2.551067534337737e-05
276.0131194897493	6.68295187723589e-05
277.0131670241325	8.942197503443977e-05
278.01321455851564	0.0001053269055209028
279.01326209289874	0.00012123183600736498
280.0133096272819	4.273858438931957e-05
281.01335716166506	-6.996515848594736e-05
282.0134046960482	-0.00018266890136120834
283.01345223043137	-0.0002153638498059366
284.01349976481447	-0.00021863667610458828
285.0135472991976	-0.00022190950240324014
286.01359483358084	-0.00016182136000739746
287.01364236796394	-7.809274486216561e-05
288.0136899023471	5.63587028307067e-06
289.01373743673025	3.827150316409617e-05
290.01378497111335	5.156732360918997e-05
291.01383250549657	6.486314405428448e-05
292.0138800398797	5.290230313606244e-05
293.0139275742628	3.124343881409505e-05
294.013975108646	9.584574492126525e-06
295.01402264302914	-1.750594628172916e-05
296.0140701774123	-4.6711983994704274e-05
297.01411771179545	-7.591802170768093e-05
298.0141652461786	-8.812230086130582e-05
299.0142127805617	-9.36104882310079e-05
300.0142603149449	-9.909867560071026e-05
301.0143078493281	-6.85518206225684e-05
302.0143553837112	-2.3568895606384426e-05
303.01440291809433	2.1414029409801914e-05
304.0144504524775	2.6499503318570976e-05
305.01449798686065	1.5376814110648046e-05
306.0145455212438	4.2541249027245295e-06
307.01459305562696	5.069512493911641e-06
308.01464059001006	1.0802488423982417e-05
309.0146881243932	1.6535464354053493e-05
310.01473565877643	3.7017321009669565e-05
311.01478319315953	6.365904498357835e-05
312.0148307275427	9.030076895748853e-05
313.01487826192584	9.359373328805897e-05
314.014925796309	8.70003289084378e-05
315.01497333069216	8.040692452881629e-05
316.0150208650753	8.918195810657406e-05
317.0150683994584	0.00010455374821750493
318.01511593384157	0.0001199255383284366
319.0151634682248	8.610097386535032e-05
320.0152110026079	3.087071831522027e-05
321.01525853699104	-2.4359537234912717e-05
322.0153060713742	-3.222373863826922e-05
323.01535360575735	-1.919845159999232e-05
324.0154011401405	-6.173164561714723e-06
325.01544867452367	3.33317231749813e-05
326.01549620890677	8.467263226052702e-05
327.0155437432899	0.00013601354134607546
328.01559127767314	0.0001327357671842332
329.01563881205624	0.00010471572835820843
330.0156863464394	7.669568953218216e-05
331.01573388082255	3.873118851276448e-05
332.01578141520565	-3.7984554796249952e-06
333.01582894958887	-4.6328099472016725e-05
334.01587648397197	-6.121133329862836e-05
335.0159240183551	-6.323405213183891e-05
336.0159715527383	-6.525677096504946e-05
337.01601908712144	-6.426618921294723e-05
338.0160666215046	-6.185530454920802e-05
339.01611415588775	-5.9444419885468804e-05
340.01616169027085	-5.6160669776204365e-05
341.016209224654	-5.24600715924484e-05
342.0162567590372	-4.875947340869244e-05
343.0163042934203	-3.7600035558595116e-05
344.0163518278035	-2.2831758842314146e-05
345.01639936218663	-8.063482126033174e-06
346.01644689656973	7.797931413550652e-06
347.01649443095295	2.419515502005076e-05
348.0165419653361	4.059237862655087e-05
349.0165894997192	3.1172629195723943e-05
350.01663703410236	8.933800266025275e-06
351.0166845684856	-1.3305028663673395e-05
352.0167321028687	-1.8958062449226736e-05
353.01677963725183	-1.6268933210820873e-05
354.016827171635	-1.3579803972415014e-05
355.0168747060181	-1.5402518897645395e-05
356.0169222404013	-1.9523834983725563e-05
357.01696977478446	-2.3645151069805728e-05
358.01701730916756	-3.7388471492618265e-05
359.0170648435507	-5.60967906040721e-05
360.01711237793387	-7.480510971552594e-05
361.017159912317	-9.135775410237714e-05
362.0172074467002	-0.00010678382798871214
363.01725498108334	-0.00012220990187504713
364.01730251546644	-8.347982813563994e-05
365.01735004984965	-1.6086695172783807e-05
366.0173975842328	5.1306437790072335e-05
367.0174451186159	4.3262934278467945e-05
368.01749265299907	-5.213513892728103e-06
369.0175401873822	-5.368996206392415e-05
370.0175877217654	-4.51000699846507e-05
371.01763525614854	-5.536658357356316e-06
372.0176827905317	3.402675326993807e-05
373.0177303249148	1.6366965024193994e-05
374.01777785929795	-3.2742769339972594e-05
375.01782539368116	-8.185250370413918e-05
376.01787292806426	-9.209869896495945e-05
377.0179204624474	-8.071732905168673e-05
378.0179679968306	-6.933595913841398e-05
379.01801553121373	-3.419726001499476e-05
380.0180630655969	1.432775984860083e-05
381.01811059998005	6.285277971219642e-05
382.01815813436315	8.17035312862303e-05
383.0182056687463	8.362559540648541e-05
384.0182532031295	8.554765952674053e-05
385.0183007375126	6.336891900928502e-05
386.0183482718958	2.7270272454298883e-05
387.0183958062789	-8.828374100685348e-06
388.01844334066203	-2.9117973222254592e-05
389.01849087504525	-4.0163692497663496e-05
390.01853840942834	-5.1209411773071814e-05
391.0185859438115	-1.4121584128925865e-05
392.01863347819466	5.1458254761224365e-05
393.0186810125778	0.00011703809365137112
394.018728546961	0.00013535758417487456
395.01877608134413	0.00012535780054017984
396.01882361572723	0.00011535801690548565
397.0188711501104	0.00010846130220988416
398.0189186844936	0.00010344680741308297
399.0189662188767	9.843231261628203e-05
400.01901375325986	2.294566570287865e-05
401.019061287643	-9.580974153048398e-05
402.01910882202617	-0.0002145651487638403
403.0191563564093	-0.00019779910959818463
404.0192038907925	-9.681066687827536e-05
405.0192514251756	4.177775841628623e-06
406.01929895955874	-2.1188371888354144e-05
407.01934649394195	-0.000126034630938004
408.01939402832505	-0.00023088088998764834
409.0194415627082	-0.0002264207198933177
410.01948909709137	-0.00015237058978888131
411.01953663147447	-7.832045968444885e-05
412.0195841658577	-2.33211858707213e-05
413.01963170024084	1.9402710491530763e-05
414.01967923462394	6.212660685378055e-05
415.0197267690071	6.865908715660285e-05
416.01977430339025	5.159048775785024e-05
417.0198218377734	3.452188835909855e-05
418.01986937215656	1.8763253287870597e-05
419.0199169065397	3.869145291404388e-06
420.0199644409228	-1.1024962705061028e-05
421.02001197530603	-1.7083068688376122e-05
422.0200595096892	-1.7239774273058377e-05
423.0201070440723	-1.7396479857740627e-05
424.02015457845545	-1.6927817022670424e-05
425.0202021128386	-1.6036482562885857e-05
426.02024964722176	-1.5145148103101338e-05
427.0202971816049	-2.30534801665767e-06
428.0203447159881	1.8706582524694595e-05
429.0203922503712	3.9718513066045746e-05
430.0204397847544	3.179584330044321e-05
431.02048731913754	3.847589921799394e-06
432.02053485352064	-2.410066345684295e-05
433.0205823879038	-2.8102152802865047e-05
434.02062992228696	-1.533306512843318e-05
435.0206774566701	-2.5639774540019915e-06
436.02072499105327	1.6935702255676455e-05
437.02077252543637	4.120493016869772e-05
438.0208200598195	6.547415808172028e-05
439.0208675942027	9.475676713534213e-05
440.02091512858584	0.00012763411399117317
441.020962662969	0.000160511460847006
442.02101019735215	0.00013273597783109014
443.02105773173525	6.0956694480402e-05
444.02110526611847	-1.0822588870289917e-05
445.0211528005016	-4.063203458661823e-05
446.0212003348847	-3.96330545328066e-05
447.0212478692679	-3.8634074478994915e-05
448.02129540365104	-1.3287507252782585e-05
449.0213429380342	3.0142127570665007e-05
450.02139047241735	7.35717623941149e-05
451.0214380068005	6.497953819194425e-05
452.0214855411836	1.729627348890684e-05
453.02153307556677	-3.0386991214133088e-05
454.02158060995	8.816228817481598e-06
455.0216281443331	0.00011407515995302354
456.02167567871624	0.0002193340910885711
457.0217232130994	0.0002352740817918557
458.02177074748255	0.00018251348479616424
459.0218182818657	0.00012975288780046998
460.02186581624886	7.950250101079891e-05
461.02191335063196	3.1205455141462696e-05
462.0219608850151	-1.70915907278761e-05
463.02200841939833	-1.2529348985648886e-05
464.02205595378143	3.3646274619153375e-05
465.0221034881646	7.982189822395808e-05
466.02215102254775	4.263731715083436e-05
467.0221985569309	-6.093796636464962e-05
468.02224609131406	-0.0001645132498801391
469.0222936256972	-0.0001645246336689235
470.0223411600803	-8.109356469035462e-05
471.0223886944635	2.337504288218688e-06
472.0224362288467	3.403248048878126e-05
473.0224837632298	2.355817470663125e-05
474.02253129761294	1.3083868924480686e-05
475.0225788319961	-6.051201464145814e-06
476.0226263663792	-3.23275642300096e-05
477.0226739007624	-5.860392699587478e-05
478.02272143514557	-7.687373255168944e-05
479.0227689695287	-8.84650397856181e-05
480.02281650391177	-0.00010005634701954554
481.022864038295	-0.00012046536348261447
