#easy_tsv
#k: 0.032 
#R: 3400.0 
#displacement [nm] 	 #force [nN] 
0.0	0.00014775513250950964
1.0000475343831496	4.043881873111372e-05
2.0000950687662993	-6.68774950472822e-05
3.0001426031494494	-0.00017419380882567812
4.0001901375325986	-0.00016788545132360224
5.000237671915748	-0.00016125116503460513
6.000285206298899	-0.00015461687874560796
7.0003327406820475	-0.00010252898182559758
8.000380275065197	-5.017957026123882e-05
9.000427809448347	2.1698413031199436e-06
10.000475343831496	1.9201658954551418e-05
11.000522878214646	3.592780074919899e-05
12.000570412597797	5.265394254384658e-05
13.000617946980945	9.877147116547086e-07
14.000665481364095	-5.147005003993043e-05
15.000713015747243	-0.0001039278147915155
16.000760550130394	-7.460652742545975e-05
17.000808084513544	-4.4098722949419077e-05
18.000855618896693	-1.3590918473378498e-05
19.000903153279843	6.678870324270645e-06
20.000950687662993	2.676989061176607e-05
21.000998222046142	4.686091089926156e-05
22.001045756429292	4.8863485115226035e-05
23.00109329081244	5.0496495884093186e-05
24.001140825195595	5.212950665296034e-05
25.00118835957874	6.31243819513438e-05
26.00123589396189	7.433849305238492e-05
27.00128342834504	8.555260415342601e-05
28.00133096272819	-5.878114782172685e-06
29.00137849711134	-0.00010002097231684429
30.001426031494486	-0.0001941638298515159
31.001473565877642	-0.0001764513440360097
32.00152110026079	-0.00015544529564139834
33.00156863464394	-0.000134439247246787
34.00161616902709	-8.958306739172608e-05
35.00166370341024	-4.395211662643931e-05
36.00171123779339	1.6788341388474652e-06
37.00175877217654	2.9313415818832917e-05
38.001806306559686	5.6308350408783265e-05
39.001853840942836	8.330328499873342e-05
40.001901375325986	3.8863926957547176e-05
41.00194890970914	-8.33418300719504e-06
42.001996444092285	-5.553229297193695e-05
43.002043978475434	-4.623112042862908e-05
44.002091512858584	-3.457313227287301e-05
45.002139047241734	-2.2915144117116854e-05
46.00218658162488	1.774471623079632e-06
47.00223411600803	2.70482590485939e-05
48.00228165039119	5.2322046474108326e-05
49.00232918477433	5.806258939797659e-05
50.00237671915748	6.286633686295336e-05
51.00242425354063	6.767008432793013e-05
52.00247178792378	5.999702618629416e-05
53.00251932230693	5.168628265869129e-05
54.00256685669008	4.337553913108843e-05
55.00261439107323	1.2179590217295027e-05
56.00266192545638	-2.025855177631539e-05
57.00270945983953	-5.269669376992558e-05
58.00275699422268	-5.567059247946209e-05
59.002804528605836	-5.695123652820073e-05
60.00285206298897	-5.823188057693934e-05
61.00289959737213	1.3901962412746234e-05
62.002947131755285	9.049032347604088e-05
63.00299466613842	0.00016707868453933456
64.00304220052158	0.00015936185841586002
65.00308973490473	0.00014625759628988773
66.00313726928788	0.00013315333416391562
67.00318480367103	7.852809268912748e-05
68.00323233805418	2.1114661023893735e-05
69.00327987243732	-3.629877064133923e-05
70.00332740682047	-1.8179336952364106e-05
71.00337494120362	5.259017992274863e-06
72.00342247558677	2.869737293691414e-05
73.00347000996993	3.442296961045815e-05
74.00351754435307	3.884303010180193e-05
75.00356507873623	4.3263090593145774e-05
76.00361261311937	3.816022189504488e-05
77.00366014750252	3.232395836521055e-05
78.00370768188567	2.6487694835376138e-05
79.00375521626883	1.5818948840724087e-05
80.00380275065197	4.761953400694521e-06
81.00385028503513	-6.295042039335194e-06
82.00389781941828	4.034312081409178e-06
83.00394535380141	1.6153495896911343e-05
84.00399288818457	2.8272679712413663e-05
85.00404042256771	2.150211821119778e-05
86.00408795695087	1.3087019649509266e-05
87.00413549133403	4.671921087820753e-06
88.00418302571717	2.0230455359948964e-05
89.00423056010032	3.7957411730351726e-05
90.00427809448347	5.5684368100754485e-05
91.00432562886661	9.825302058302687e-05
92.00437316324977	0.0001431533648746833
93.00442069763292	0.00018805370916633976
94.00446823201607	0.0001563279711741383
95.00451576639922	0.00011714688578364383
96.00456330078238	7.796580039314933e-05
97.00461083516551	2.3562395253431688e-05
98.00465836954866	-3.2374657517840656e-05
99.00470590393181	-8.831171028911225e-05
100.00475343831496	-6.850883560402348e-05
101.00480097269812	-4.081185226757668e-05
102.00484850708126	-1.3114868931130267e-05
103.00489604146442	1.4106653446683863e-06
104.00494357584756	1.4517303550244489e-05
105.0049911102307	2.7623941755820415e-05
106.00503864461386	-5.339342345100885e-05
107.00508617899702	-0.00014488170632174724
108.00513371338016	-0.0002363699891924844
109.00518124776332	-0.00017336859703275364
110.00522878214646	-9.26334437394615e-05
111.00527631652962	-1.189829044616829e-05
112.00532385091276	-2.099413842847343e-05
113.0053713852959	-4.072195925558708e-05
114.00541891967906	-6.044978008270098e-05
115.00546645406222	-4.8629170340205874e-05
116.00551398844536	-3.296141436698042e-05
117.00556152282851	-1.7293658393754763e-05
118.00560905721167	-5.51020736169547e-05
119.0056565915948	-9.962474902518371e-05
120.00570412597794	-0.0001441474244334127
121.00575166036111	-8.858033940578997e-05
122.00579919474426	-2.008251634166596e-05
123.0058467291274	4.8415306722458064e-05
124.00589426351057	3.0197201527175806e-05
125.00594179789371	4.5886090168715136e-07
126.00598933227684	-2.9279479723801504e-05
127.00603686666001	-5.29042277302724e-05
128.00608440104315	-7.569426900762166e-05
129.0061319354263	-9.848431028497095e-05
130.00617946980947	-2.0004410330479105e-05
131.0062270041926	7.267754622238565e-05
132.00627453857575	0.0001653595027752504
133.0063220729589	7.470791405993782e-05
134.00636960734207	-4.2338303268678155e-05
135.0064171417252	-0.00015938452059729416
136.00646467610835	-7.160227127730206e-05
137.0065122104915	4.6438460029641406e-05
138.00655974487464	0.00016447919133658485
139.00660727925782	0.00012526701693329508
140.00665481364095	6.223006432004891e-05
141.0067023480241	-8.068882931972362e-07
142.00674988240723	-2.564955349862971e-05
143.00679741679042	-4.4560215411718973e-05
144.00684495117355	-6.347087732480773e-05
145.00689248555668	-2.4746893241004346e-05
146.00694001993986	2.3149163395919382e-05
147.006987554323	7.104522003284184e-05
148.00703508870615	4.3360430517685044e-05
149.0070826230893	3.3561513225425076e-06
150.00713015747246	-3.6648127872598976e-05
151.0071776918556	-6.242636610700757e-05
152.00722522623875	-8.58305752991439e-05
153.0072727606219	-0.00010923478449127963
154.00732029500503	-3.31647368367593e-05
155.00736782938822	5.9894191476511864e-05
156.00741536377134	0.00015295311978978058
157.0074628981545	0.00011823431146828563
158.00751043253766	6.119010519260548e-05
159.00755796692079	4.145898916926837e-06
160.00760550130394	-1.3282835111804576e-05
161.0076530356871	-2.3633039214246676e-05
162.00770057007026	-3.3983243316688496e-05
163.00774810445338	-1.704877793874027e-05
164.00779563883657	4.869726644286709e-06
165.0078431732197	2.6788231227313106e-05
166.00789070760283	2.1804364224104646e-05
167.00793824198598	1.1798299040263493e-05
168.00798577636914	1.792233856422083e-06
169.0080333107523	-2.0632218015208454e-05
170.00808084513542	-4.542515356484292e-05
171.0081283795186	-7.021808911447806e-05
172.00817591390174	-1.7160078895727538e-05
173.00822344828487	5.1062762396097026e-05
174.00827098266805	0.00011928560368792339
175.00831851705118	0.00010706994068217868
176.00836605143434	7.885584203768345e-05
177.0084135858175	5.0641743393187494e-05
178.00846112020065	4.064144719632205e-05
179.00850865458378	3.4338836656896076e-05
180.00855618896693	2.803622611746993e-05
181.0086037233501	3.2347948319719334e-06
182.00865125773322	-2.5399025664762652e-05
183.0086987921164	-5.403284616149799e-05
184.00874632649953	-2.9109104042928937e-05
185.0087938608827	7.134134077377654e-06
186.00884139526585	4.337737219768522e-05
187.00888892964898	3.7140215224314296e-05
188.00893646403213	2.174583002244356e-05
189.0089839984153	6.351444820572424e-06
190.00903153279845	2.466658853468949e-06
191.00907906718157	1.1117367583647517e-06
192.00912660156476	-2.4318533673948164e-07
193.0091741359479	-1.4310956460954217e-05
194.00922167033102	-3.122736485782757e-05
195.00926920471417	-4.814377325470091e-05
196.00931673909733	-1.8073398410939772e-05
197.0093642734805	2.2727639782740987e-05
198.00941180786361	6.352867797642175e-05
199.0094593422468	4.257745184064236e-05
200.00950687662993	7.256023010864131e-06
201.00955441101308	-2.8065405818914084e-05
202.00960194539624	-3.7493800763646704e-05
203.00964947977937	-4.0783758964060015e-05
204.00969701416253	-4.407371716447333e-05
205.00974454854568	-1.7334487138251e-05
206.00979208292884	1.6655643556354128e-05
207.00983961731197	5.064577425095925e-05
208.00988715169512	1.3752206223019243e-05
209.00993468607828	-4.0570655853935925e-05
210.0099822204614	-9.48935179308911e-05
211.0100297548446	-7.576018801744906e-05
212.01007728922772	-3.8237728011468045e-05
213.01012482361088	-7.152680054870284e-07
214.01017235799404	-2.467044993709825e-05
215.0102198923772	-6.429192465099111e-05
216.01026742676032	-0.00010391339936488397
217.01031496114348	-0.00011226776531153272
218.01036249552664	-0.0001125130349505303
219.01041002990976	-0.00011275830458952788
220.01045756429292	-0.00010318568399444956
221.01050509867608	-9.102210491856625e-05
222.01055263305923	-7.885852584268326e-05
223.01060016744236	-0.00011947402969554016
224.01064770182552	-0.00017426005527298408
225.01069523620868	-0.0002290460808504265
226.0107427705918	-0.00018581017206622318
227.010790304975	-0.0001158038306850346
228.01083783935812	-4.579748930384785e-05
229.01088537374127	-5.4689822184589567e-05
230.01093290812443	-8.549700446965467e-05
231.01098044250756	-0.00011630418675471894
232.01102797689072	-6.901547645797293e-05
233.01107551127387	3.311380721059451e-07
234.01112304565703	6.967775260218298e-05
235.01117058004016	8.68734635337852e-06
236.01121811442334	-8.973167007510133e-05
237.01126564880647	-0.00018815068650357856
238.0113131831896	-0.00013987616783802683
239.01136071757279	-4.877823977568858e-05
240.01140825195588	4.231968828664486e-05
241.01145578633907	5.919611640048664e-05
242.01150332072223	5.404983829091633e-05
243.01155085510536	4.8903560181346286e-05
244.0115983894885	4.198707057465759e-05
245.01164592387167	3.453678545520269e-05
246.0116934582548	2.708650033574818e-05
247.01174099263795	2.4198260160866026e-05
248.01178852702114	2.270786153321291e-05
249.01183606140424	2.1217462905559865e-05
250.01188359578742	9.696121747701852e-07
251.01193113017058	-2.5117559221120003e-05
252.01197866455368	-5.120473061700882e-05
253.01202619893687	-1.769375458739506e-05
254.01207373332002	3.466474940050175e-05
255.01212126770315	8.702325338839579e-05
256.0121688020863	0.00012387309338944642
257.01221633646946	0.00015574127685585824
258.0122638708526	0.00018760946032226835
259.0123114052358	0.0001734429976644465
260.01235893961893	0.000144258675034608
261.01240647400203	0.00011507435240477103
262.0124540083852	8.94023657269208e-05
263.0125015427684	6.489394408542284e-05
264.0125490771515	4.0385522443926175e-05
265.01259661153466	3.413312458299334e-05
266.0126441459178	3.402147215237816e-05
267.0126916803009	3.390981972176299e-05
268.01273921468413	1.711417787298642e-05
269.0127867490673	-5.378977361485349e-06
270.0128342834504	-2.7872132595955927e-05
271.01288181783355	-2.7487665847294137e-05
272.0129293522167	-1.9172372799682135e-05
273.01297688659986	-1.0857079752070571e-05
274.013024420983	2.9096832814298905e-05
275.0130719553662	8.018343286018822e-05
276.0131194897493	0.00013127003290607482
277.0131670241325	9.793191185853032e-05
278.01321455851564	3.4444222003098065e-05
279.01326209289874	-2.9043467852330844e-05
280.0133096272819	-5.37604114872543e-05
281.01335716166506	-6.442659434434576e-05
282.0134046960482	-7.509277720143666e-05
283.01345223043137	-3.2335318853483304e-05
284.01349976481447	3.0067941036791113e-05
285.0135472991976	9.247120092706885e-05
286.01359483358084	7.193844880253908e-05
287.01364236796394	2.0461622236331385e-05
288.0136899023471	-3.101520432987903e-05
289.01373743673025	-1.0483133436694837e-05
290.01378497111335	3.7305881734691245e-05
291.01383250549657	8.509489690607985e-05
292.0138800398797	4.2830594248191434e-05
293.0139275742628	-3.401227646864503e-05
294.013975108646	-0.00011085514718548556
295.01402264302914	-7.878648922218751e-05
296.0140701774123	-4.299061620334344e-06
297.01411771179545	7.018836598152274e-05
298.0141652461786	2.937599459674861e-05
299.0142127805617	-5.698249073610427e-05
300.0142603149449	-0.00014334097606896173
301.0143078493281	-0.00020441930751154532
302.0143553837112	-0.0002553701061872784
303.01440291809433	-0.0003063209048630143
304.0144504524775	-0.0002551137794394173
305.01449798686065	-0.00016240544901386324
306.0145455212438	-6.969711858830421e-05
307.01459305562696	-6.59094725628811e-06
308.01464059001006	4.432136447724802e-05
309.0146881243932	9.523367621078684e-05
310.01473565877643	0.00010170906867524524
311.01478319315953	8.96253899922109e-05
312.0148307275427	7.754171130917592e-05
313.01487826192584	6.882920871222409e-05
314.014925796309	6.154413482168389e-05
315.01497333069216	5.425906093114331e-05
316.0150208650753	3.600926980463164e-05
317.0150683994584	1.3052977584035259e-05
318.01511593384157	-9.903314636562331e-06
319.0151634682248	-2.332069244355321e-05
320.0152110026079	-3.258761932767626e-05
321.01525853699104	-4.18545462117998e-05
322.0153060713742	-5.310090193455265e-05
323.01535360575735	-6.522023001251633e-05
324.0154011401405	-7.733955809048062e-05
325.01544867452367	-5.605646472714016e-05
326.01549620890677	-1.9842943303900307e-05
327.0155437432899	1.6370578119341445e-05
328.01559127767314	3.724848721825986e-05
329.01563881205624	5.117936361049181e-05
330.0156863464394	6.51102400027245e-05
331.01573388082255	3.42605538945329e-05
332.01578141520565	-1.714626906520841e-05
333.01582894958887	-6.855309202495242e-05
334.01587648397197	-9.281703570357148e-05
335.0159240183551	-0.0001044546961191637
336.0159715527383	-0.00011609235653475593
337.01601908712144	-8.692549283086662e-05
338.0160666215046	-3.8525637669920686e-05
339.01611415588775	9.874217491025251e-06
340.01616169027085	-1.6547148741538444e-06
341.016209224654	-4.1803407380978695e-05
342.0162567590372	-8.195209988780356e-05
343.0163042934203	-8.662730068487058e-05
344.0163518278035	-7.41392265855651e-05
345.01639936218663	-6.165115248625963e-05
346.01644689656973	-4.0901484309783304e-05
347.01649443095295	-1.6102327376775404e-05
348.0165419653361	8.696829556232488e-06
349.0165894997192	3.0944128509793336e-05
350.01663703410236	5.192433583874667e-05
351.0166845684856	7.29045431677e-05
352.0167321028687	7.098836374027033e-05
353.01677963725183	5.755598087963933e-05
354.016827171635	4.412359801900833e-05
355.0168747060181	4.005337399850555e-05
356.0169222404013	4.0752789264620435e-05
357.01696977478446	4.1452204530735314e-05
358.01701730916756	1.9560534188671734e-05
359.0170648435507	-1.3988240691516884e-05
360.01711237793387	-4.753701557170549e-05
361.017159912317	-2.8757752429719485e-05
362.0172074467002	1.736850481714573e-05
363.01725498108334	6.349476206401095e-05
364.01730251546644	4.92384003610157e-05
365.01735004984965	3.023513930829717e-06
366.0173975842328	-4.319137249935626e-05
367.0174451186159	-4.215219866891074e-05
368.01749265299907	-1.5785532882935764e-05
369.0175401873822	1.0581132903039208e-05
370.0175877217654	1.4249481449375693e-05
371.01763525614854	5.598014678252664e-06
372.0176827905317	-3.053452092870367e-06
373.0177303249148	-5.269950206251134e-05
374.01777785929795	-0.00012487622902332513
375.01782539368116	-0.0001970529559841389
376.01787292806426	-0.0001611623931418493
377.0179204624474	-6.513236777687929e-05
378.0179679968306	3.089765758809067e-05
379.01801553121373	3.9119791204761236e-05
380.0180630655969	-2.134369086182172e-06
381.01811059998005	-4.338852937712557e-05
382.01815813436315	-4.132792886281974e-05
383.0182056687463	-1.4556961755742392e-05
384.0182532031295	1.2214005351334954e-05
385.0183007375126	1.766384655714346e-05
386.0183482718958	1.0799241269510536e-05
387.0183958062789	3.934635981877972e-06
388.01844334066203	-1.0270183255723642e-05
389.01849087504525	-2.876697872303762e-05
390.01853840942834	-4.726377419035062e-05
391.0185859438115	-4.846040985191222e-05
392.01863347819466	-3.9416446611278325e-05
393.0186810125778	-3.0372483370644915e-05
394.018728546961	-3.7069616867423814e-05
395.01877608134413	-5.319910643993807e-05
396.01882361572723	-6.932859601245148e-05
397.0188711501104	-5.038558090976733e-05
398.0189186844936	-1.0168734159721724e-05
399.0189662188767	3.0048112590321737e-05
400.01901375325986	4.840725284465963e-05
401.019061287643	5.334611522892539e-05
402.01910882202617	5.8284977613190893e-05
403.0191563564093	2.8851616383269222e-05
404.0192038907925	-2.1943022823037076e-05
405.0192514251756	-7.27376620293407e-05
406.01929895955874	-6.069129554175118e-05
407.01934649394195	-9.116407690536436e-06
408.01939402832505	4.245848016067557e-05
409.0194415627082	4.23524720348106e-05
410.01948909709137	9.34381113273911e-06
411.01953663147447	-2.366484976933063e-05
412.0195841658577	-2.9838130366677297e-05
413.01963170024084	-1.87200925441246e-05
414.01967923462394	-7.602054721572493e-06
415.0197267690071	-1.537459203844137e-05
416.01977430339025	-3.546601648429047e-05
417.0198218377734	-5.555744093013851e-05
418.01986937215656	-6.878759890012377e-05
419.0199169065397	-7.748957964352132e-05
420.0199644409228	-8.619156038691842e-05
421.02001197530603	-6.137977063472973e-05
422.0200595096892	-1.4184760703553093e-05
423.0201070440723	3.301024922762105e-05
424.02015457845545	5.286008238841914e-05
425.0202021128386	5.422796166639634e-05
426.02024964722176	5.559584094437347e-05
427.0202971816049	5.472123780420823e-05
428.0203447159881	5.231289305767214e-05
429.0203922503712	4.990454831113618e-05
430.0204397847544	3.6985320403052775e-05
431.02048731913754	1.6791529606057416e-05
432.02053485352064	-3.402261190936872e-06
433.0205823879038	-3.714542226461077e-06
434.02062992228696	9.896744460294399e-06
435.0206774566701	2.3508031147049152e-05
436.02072499105327	3.881950550773854e-05
437.02077252543637	5.5335796179249894e-05
438.0208200598195	7.185208685076211e-05
439.0208675942027	2.0586087450616328e-05
440.02091512858584	-7.928175442023077e-05
441.020962662969	-0.0001791495962910831
442.02101019735215	-0.00016694695125229206
443.02105773173525	-7.343684966414336e-05
444.02110526611847	2.0073251924010308e-05
445.0211528005016	5.484049746995912e-05
446.0212003348847	4.6486896667422714e-05
447.0212478692679	3.8133295864885884e-05
448.02129540365104	1.0199212444503755e-05
449.0213429380342	-3.227738758164458e-05
450.02139047241735	-7.475398760779514e-05
451.0214380068005	-6.545700774082375e-05
452.0214855411836	-1.7255552978402472e-05
453.02153307556677	3.0945901784021374e-05
454.02158060995	7.854196984383269e-06
455.0216281443331	-6.943834660047831e-05
456.02167567871624	-0.00014673089018534398
457.0217232130994	-0.0001596360808655935
458.02177074748255	-0.0001230170724955515
459.0218182818657	-8.639806412550758e-05
460.02186581624886	-4.266912985083586e-05
461.02191335063196	6.59245231790832e-06
462.0219608850151	5.585403448665513e-05
463.02200841939833	4.4254861088315276e-05
464.02205595378143	-1.5256835847398977e-05
465.0221034881646	-7.476853278311637e-05
466.02215102254775	-6.766268642606821e-05
467.0221985569309	-7.500522473842783e-06
468.02224609131406	5.266164147838584e-05
469.0222936256972	5.9802617752943384e-05
470.0223411600803	2.422390154645144e-05
471.0223886944635	-1.1354814660042394e-05
472.0224362288467	-4.0129698185849726e-05
473.0224837632298	-6.335888385414363e-05
474.02253129761294	-8.658806952243873e-05
475.0225788319961	-9.733465975227233e-05
476.0226263663792	-9.778864099164964e-05
477.0226739007624	-9.824262223102698e-05
478.02272143514557	-0.00010577951346547953
479.0227689695287	-0.00011922446246748295
480.02281650391177	-0.00013266941146948495
481.022864038295	-0.00011293761788601826
